ECG_Clean,ECG_Rate,PPG_Clean,PPG_Rate,RSP_Clean,RSP_Rate,pyVHR
-53.31741580356184,67.44544989686445,-61.64862228189128,69.58467342558107,-35.94392741712089,19.04815770515373,65.25212860107426
-52.635348322283846,67.44660214292291,-61.67133564309648,69.57014668430324,-35.94619250664864,19.048312923369977,65.25212980648939
-51.95079272927372,67.44777533582479,-61.688522992132015,69.55564970642347,-35.94739326867844,19.048468064083547,65.25213342621491
-51.2562489952863,67.44896942184987,-61.70022588381358,69.54118260600727,-35.94747628110621,19.04862312740419,65.25213946547103
-50.54671709128881,67.450184347309,-61.70649075785215,69.5267454969637,-35.94638848268314,19.048778113441674,65.25214792947794
-49.81219698845985,67.45142005854376,-61.70736886919106,69.51233849304673,-35.94407714490176,19.048933022305764,65.25215882345584
-49.05018865818847,67.45267650192608,-61.70291621689962,69.4979617078563,-35.94048984401216,19.049087854106237,65.25217215262491
-48.26069207207317,67.453953623858,-61.69319347112751,69.48361525483965,-35.93557444793106,19.04924260895287,65.25218792220538
-47.44620720192096,67.45525137077124,-61.67826589910685,69.46929924729235,-35.929279132806364,19.049397286955465,65.25220613741743
-46.60423401974639,67.45656968912694,-61.658203291815,69.45501379835967,-35.92155240710901,19.049551888223824,65.25222680348129
-45.72977249777056,67.45790852541528,-61.63307989319352,69.44075902103764,-35.91234312112364,19.049706412867767,65.25224992561712
-44.81782260842011,67.45926782615517,-61.60297433358622,69.42653502817431,-35.901600469222075,19.04986086099711,65.25227550904512
-43.87088432432632,67.46064753789393,-61.56796956814108,69.41234193247101,-35.88927399230341,19.05001523272169,65.2523035589855
-42.88145761832404,67.46204760720697,-61.52815282017366,69.39817984648347,-35.875313580406875,19.050169528151347,65.25233408065847
-41.849542463450696,67.46346798069742,-61.48361552908602,69.38404888262309,-35.85966947550315,19.050323747395925,65.25236707928424
-40.77763883294536,67.46490860499583,-61.43445330151942,69.36994915315806,-35.84229226709219,19.050477890565293,65.25240256008297
-39.66574670024767,67.46636942675987,-61.3807658628196,69.35588077021477,-35.823132873235416,19.050631957769312,65.25244052827487
-38.51636603899686,67.46785039267392,-61.32265700515498,69.34184384577881,-35.802142521784745,19.050785949117863,65.25248098908015
-37.331996823030735,67.46935144944891,-61.26023453029195,69.32783849169633,-35.77927273919246,19.05093986472083,65.25252394771903
-36.12263902638468,67.47087254382178,-61.19361018806839,69.31386481967523,-35.75447533215205,19.05109370468811,65.25256940941166
-34.89829262329059,67.47241362255537,-61.12289961327413,69.29992294128631,-35.72770236945431,19.05124746912961,65.25261737937826
-33.66395758817589,67.47397463243792,-61.04822226291411,69.28601296796467,-35.69890617882063,19.05140115815524,65.25266786283905
-32.42963389566248,67.47555552028288,-60.969701354240726,69.27213501101076,-35.66803935134125,19.05155477187493,65.25272086501421
-31.202821520565696,67.47715623292856,-60.8874638030382,69.25828918159173,-35.63505474614615,19.0517083103986,65.25277639112394
-29.991020437893305,67.47877671723776,-60.80164016142539,69.24447559074262,-35.59990548793595,19.051861773836205,65.25283444638843
-28.804230622844425,67.48041692009751,-60.71236455440031,69.23069434936758,-35.56254495000054,19.05201516229768,65.2528950360279
-27.64245205080849,67.48207678841874,-60.61977461430868,69.21694556824117,-35.52292673748746,19.052168475893,65.25295816526253
-26.50568469736422,67.48375626913595,-60.52401141237998,69.20322935800957,-35.48100468568167,19.052321714732123,65.25302383931252
-25.39642853827852,67.48545530920691,-60.42521938643814,69.18954582919179,-35.43673287330235,19.052474878925025,65.25309206339809
-24.31718354950547,67.48717385561233,-60.32354626385971,69.17589509218098,-35.39006565082193,19.052627968581703,65.25316284273941
-23.267949707185224,67.48891185535557,-60.21914297882092,69.16227725724568,-35.34095766905602,19.052780983812134,65.2532361825567
-22.25122698764297,67.49066925546236,-60.11216358284564,69.14869243453099,-35.289363885895185,19.052933924726343,65.25331208807015
-21.262015367387814,67.4924460029804,-60.00276514763995,69.1351407340599,-35.235239543805704,19.053086791434332,65.25339056449995
-20.31031482311179,67.4942420449791,-59.891107659174814,69.12162226573459,-35.17854013286102,19.053239584046125,65.25347161706634
-19.39862533168867,67.49605732854934,-59.777353901957326,69.10813713933754,-35.11922136882223,19.05339230267175,65.25355525098946
-18.52444687017296,67.49789180080302,-59.661669332412416,69.09468546453296,-35.05723919365118,19.05354494742125,65.25364147148956
-17.682779415798784,67.49974540887284,-59.54422194028115,69.08126735086792,-34.992549783705385,19.053697518404668,65.25373028378682
-16.866122945978802,67.50161809991205,-59.42518209692916,69.06788290777374,-34.92510955824198,19.05385001573208,65.25382169310141
-16.071977438303094,67.50350982109401,-59.30472238944854,69.05453224456714,-34.85487518085763,19.05400243951353,65.25391570465358
-15.29284287053808,67.50542051961199,-59.18301743942972,69.04121547045158,-34.78180354649154,19.054154789859105,65.25401232366349
-14.521219220625408,67.50735014267882,-59.06024370544711,69.02793269451855,-34.7058517687529,19.054307066878888,65.25411155535134
-13.754606466680846,67.5092986375266,-58.936579269157605,69.01468402574879,-34.626977174956274,19.05445927068298,65.25421340493736
-12.993004586993177,67.51126595140643,-58.812203606453664,69.00146957301365,-34.54513729411406,19.054611401381468,65.25431787764172
-12.233913560023078,67.51325203158802,-58.68729734597067,68.98828944507626,-34.46028984526938,19.05476345908448,65.25442497868465
-11.477333364402,67.51525682535956,-58.56204201656449,68.97514375059293,-34.372392740930486,19.05491544390212,65.2545347132863
-10.725763978931049,67.51728028002718,-58.43661978452068,68.96203259811436,-34.28140409823405,19.05506735594453,65.25464708666692
-9.979205382579856,67.5193223429149,-58.31121318108849,68.94895609608695,-34.18728225046355,19.055219195321843,65.25476210404668
-9.240157554485451,67.52138296136414,-58.18600482025272,68.9359143528541,-34.08998575892775,19.0553709621442,65.25487977064579
-8.506120473951135,67.52346208273354,-58.06117710580656,68.9229074766575,-33.98947342520388,19.05552265652177,65.25500009168442
-7.777094120445318,67.52555965439866,-57.93691192765533,68.90993557563846,-33.88570430375,19.05567427856471,65.25512307238282
-7.0505784736004,67.52767562375159,-57.81339034900553,68.89699875783911,-33.778637714891445,19.055825828383195,65.25524871796114
-6.326573513211628,67.52980993820077,-57.69079228662068,68.88409713120384,-33.668233258185246,19.055977306087403,65.25537703363962
-5.605079219235929,67.53196254517064,-57.569296185652405,68.87123080358047,-33.55445082616781,19.05612871178753,65.25550802463844
-4.878595571790776,67.53413339210135,-57.44907868919842,68.85839988272167,-33.43725061848977,19.05628004559377,65.25564169617779
-4.144622551153022,67.53632242644849,-57.33031430172622,68.84560447628614,-33.31659315644249,19.05643130761633,65.25577805347788
-3.403160137757744,67.53852959568282,-57.2131750463761,68.8328446918401,-33.1924392978808,19.05658249796544,65.2559171017589
-2.6592083121970798,67.54075484728988,-57.09783011789017,68.82012063685843,-33.06475025254608,19.05673361675132,65.25605884624106
-1.922767055219064,67.54299812876985,-56.98444553379083,68.80743241872608,-32.93348759779404,19.056884664084198,65.25620329214456
-1.193836347726457,67.54525938763715,-56.873183787480215,68.79478014473935,-32.79861328735343,19.05703564007432,65.2563504446896
-0.4774161707755723,67.54753857142016,-56.764203508492,68.78216392210726,-32.660089645741884,19.05718654483195,65.25650030909637
0.2239934944249012,67.54983562766105,-56.65765913497148,68.7695838579528,-32.5178793704778,19.057337378467334,65.25665289058507
0.907892666515077,67.55215050391537,-56.55370060107395,68.75704005931432,-32.37194556422621,19.057488141090754,65.25680819437589
1.5767813639850543,67.5544831477518,-56.452473039585136,68.74453263314685,-32.22225176737071,19.057638832812483,65.25696622568904
2.228159605176105,67.55683350675187,-56.35411649905328,68.73206168632338,-32.06876196150283,19.057789453742807,65.25712698974472
2.8645274082818637,67.55920152850973,-56.25876567456656,68.71962732563624,-31.911440565967325,19.057940003992023,65.25729049176314
3.4908847913495173,67.56158716063177,-56.16654965132811,68.70722965779844,-31.750252442223317,19.05809048367044,65.25745673696447
4.102231772281007,67.56399035073645,-56.07759166020157,68.69486878944498,-31.585162891269768,19.05824089288836,65.25762573056895
4.701068368834223,67.56641104645394,-55.99200884442291,68.68254482713421,-31.416137651517303,19.05839123175612,65.25779747779673
5.284894598624208,67.56884919542586,-55.909912036871255,68.67025787734913,-31.24314291186657,19.05854150038404,65.25797198386805
5.851210479124362,67.57130474530501,-55.83140554817483,68.65800804649886,-31.06614533261876,19.058691698882463,65.25814925400307
6.395016027667656,67.57377764375514,-55.75658696732731,68.64579544091978,-30.885112066843988,19.05884182736174,65.25832929342204
6.918811261447836,67.57626783845056,-55.68554697651763,68.63362016687712,-30.700010782210875,19.058991885932222,65.25851210734511
7.415096197520642,67.578775277076,-55.6183691796773,68.6214823305661,-30.51080968328074,19.059141874704284,65.2586977009925
7.881370852805029,67.58129990732625,-55.55512994273698,68.60938203811342,-30.3174775342697,19.05929179378829,65.2588860795844
8.317635244084386,67.58384167690589,-55.49589824498644,68.59731939557857,-30.11998367490383,19.059441643294623,65.25907724834104
8.726389388007751,67.58640053352904,-55.44073554250767,68.5852945089552,-29.918298014614827,19.05959142333369,65.25927121248257
9.11263330109106,67.5889764249191,-55.38969564382829,68.5733074841725,-29.71239101245787,19.059741134015862,65.25946797722924
9.481366999718343,67.59156929880847,-55.34282459643474,68.56135842709651,-29.5022336648898,19.05989077545158,65.2596675478012
9.832590500143002,67.59417910293824,-55.30016058213646,68.54944744353153,-29.28779749403316,19.060040347751244,65.25986992941868
10.171303818489,67.596805785058,-55.26173381913964,68.53757463922152,-29.069054529052053,19.060189851025275,65.2600751273019
10.495006970752131,67.5994492929255,-55.22756646975824,68.5257401198514,-28.84597730277744,19.06033928538412,65.260283146671
10.806199972801256,67.60210957430641,-55.19767255513176,68.51394399104848,-28.618538870963377,19.06048865093821,65.26049399274622
11.104882840379531,67.60478657697409,-55.1720578797308,68.50218635838384,-28.38671283942074,19.060637947798007,65.26070767074773
11.396055589105671,67.60748024870922,-55.15071996693024,68.49046732737365,-28.15047339165337,19.06078717607397,65.26092418589579
11.679718234475205,67.6101905372997,-55.13364800388463,68.47878700348063,-27.909795309620783,19.060936335876555,65.2611435434105
11.958370791861697,67.61291739054019,-55.12082279226821,68.46714549211539,-27.66465397287447,19.061085427316254,65.26136574851216
12.242013276518035,67.61566075623205,-55.112216702170535,68.45554289863784,-27.41502534344825,19.06123445050355,65.26159080642091
12.533145703577684,67.61842058218288,-55.1077936280266,68.44397932835855,-27.160885966018228,19.06138340554893,65.26181872235696
12.83676808805592,67.62119681620642,-55.10750894636393,68.43245488654023,-26.90221299071308,19.061532292562905,65.2620495015405
13.155380444851126,67.62398940612219,-55.11130947536709,68.42096967839899,-26.63898420382091,19.06168111165598,65.26228314919177
13.493982788746033,67.62679829975531,-55.11913343630689,68.40952380910582,-26.37117805163876,19.06182986293868,65.26251967053092
13.845075134409004,67.62962344493613,-55.13091041692716,68.39811738378803,-26.09877364271073,19.061978546521527,65.26275907077819
14.213657496395305,67.63246478950008,-55.14656133692793,68.38675050753058,-25.821750735835472,19.062127162515065,65.26300135515373
14.602229889148354,67.63532228128739,-55.165998415727856,68.37542328537751,-25.54008975073525,19.062275711029837,65.26324652887777
15.010792327001036,67.63819586814274,-55.18912514273262,68.36413582233334,-25.25377181614516,19.062424192176397,65.2634945971705
15.436844824176948,67.64108549791518,-55.21583625037879,68.35288822336456,-24.96277881105549,19.062572606065302,65.26374556525215
15.877887394791692,67.6439911184577,-55.24601769026353,68.34168059340091,-24.66709335484073,19.06272095280713,65.26399943834289
16.33642005285416,67.64691267762707,-55.27954661271119,68.33051303733691,-24.36669877578945,19.06286923251246,65.26425622166292
16.814942812267816,67.64985012328357,-55.31629135016581,68.31938566003322,-24.06157910968375,19.063017445291862,65.26451592043244
17.31095568683198,67.65280340329075,-55.35611140483592,68.3082985663181,-23.75171912843032,19.063165591255963,65.26477853987166
17.82695869024314,67.65577246551513,-55.39885744105307,68.29725186098881,-23.43710436923229,19.063313670515345,65.26504408520074
18.362951836096197,67.65875725782601,-55.444371282838986,68.28624564881305,-23.11772114216925,19.063461683180623,65.26531256163993
18.91893513788581,67.6617577280952,-55.49248591703625,68.27528003453038,-22.793556523564583,19.06360962936243,65.26558397440941
19.49240860900767,67.66477382419673,-55.54302550153024,68.26435512285367,-22.46459836465423,19.06375750917138,65.26585832872937
20.08337226275979,67.66780549400666,-55.59580537640552,68.25347101847053,-22.130835322935944,19.063905322718128,65.26613562982
20.689326112343828,67.67085268540282,-55.650632074537405,68.24262782604475,-21.792256894065797,19.064053070113303,65.26641588290154
21.305270170866365,67.67391534626454,-55.707303329006,68.23182565021773,-21.448853422168604,19.06420075146757,65.26669909319416
21.92870445134024,67.67699342447239,-55.76560807766224,68.22106459560993,-21.10061609594137,19.064348366891597,65.26698526591804
22.557128966685816,67.680086867908,-55.825326467087145,68.21034476682235,-20.747536952684705,19.064495916496043,65.26727440629342
23.19054372973234,67.68319562445379,-55.88622985735303,68.19966626843795,-20.389608882885405,19.064643400391592,65.26756651954047
23.82394875321921,67.68631964199264,-55.94808082764432,68.18902920502309,-20.02682562797282,19.06479081868894,65.2678616108794
24.46484404979731,67.68945886840781,-56.01063318281326,68.17843368112902,-19.65918178600612,19.064938171498778,65.26815968553042
25.115729632030323,67.69261325158253,-56.07363196147453,68.16787980129331,-19.28667281053684,19.065085458931808,65.26846074871372
25.76910551239605,67.6957827393999,-56.13681344642555,68.15736767004134,-18.90929498051373,19.065232681098752,65.26876480564948
26.42497170328772,67.69896727974258,-56.19990517818752,68.14689739188772,-18.527045370742705,19.065379838110324,65.26907186155792
27.083328217015307,67.70216682049251,-56.262625972295695,68.13646907133784,-18.139921859793283,19.06552693007725,65.26938192165922
27.74417506580688,67.70538130953078,-56.32468594011206,68.12608281288925,-17.747923160595526,19.065673957110285,65.26969499117362
28.407512261809902,67.70861069473729,-56.38578651139018,68.11573872103321,-17.351048836837137,19.065820919320164,65.27001107532128
29.070839817092555,67.71185492399059,-56.44562045613418,68.10543690025607,-16.949299305160523,19.06596781681764,65.2703301793224
29.73415774364508,67.71511394516759,-56.503871905002704,68.09517745504085,-16.542675845293687,19.06611464971348,65.2706523083972
30.399966053381107,67.71838770614335,-56.56021637058589,68.08496048986868,-16.1311806033588,19.06626141811845,65.27097746776586
31.070764758138974,67.72167615479084,-56.61432077341294,68.0747861092203,-15.714816566224194,19.066408122143343,65.2713056626486
31.746553869683083,67.72497923898068,-56.66584347498747,68.06465441757751,-15.293587536412147,19.06655476189893,65.2716368982656
32.4248333997052,67.728296906581,-56.714434317039576,68.0545655194247,-14.867498137074476,19.066701337496024,65.27197117983707
33.10560335982582,67.73162910545705,-56.75973466444297,68.04451951925031,-14.43655382490156,19.066847849045416,65.27230851258321
33.78886376159549,67.73497578347113,-56.801377449901935,68.0345165215484,-14.000760896207922,19.066994296657924,65.27264890172418
34.47211461649617,67.73833688848227,-56.838987220023455,68.02455663082004,-13.56012650094958,19.06714068044437,65.27299235248024
35.15785593594254,67.741712368346,-56.872180183383314,68.01463995157492,-13.11465865729403,19.067287000515588,65.27333887007156
35.84858773128336,67.74510217091415,-56.90056426218333,68.0047665883328,-12.664366251985824,19.067433256982405,65.27368845971831
36.546810013802805,67.74850624403464,-56.92373915059418,67.99493664562502,-12.209259033884706,19.067579449955677,65.27404112664077
37.26002279472185,67.75192453555118,-56.94129638368272,67.98515022799602,-11.74934760805334,19.067725579546245,65.27439687605906
37.985726085199545,67.75535699330311,-56.95281941990643,67.97540744000489,-11.284643423015766,19.06787164586498,65.27475571319341
38.72141989633442,67.75880356512516,-56.95788373854892,67.96570838622682,-10.815158743807508,19.06801764902275,65.27511764326401
39.472104239165816,67.76226419884718,-56.956056952540926,67.9560531712547,-10.3409066255727,19.06816358913043,65.27548267149108
40.23777912467524,67.76573884229398,-56.94689893686265,67.94644189970056,-9.861900902463276,19.06830946629892,65.27585080309478
41.0184445637877,67.76922744328509,-56.92996197263977,67.9368746761972,-9.37815619183899,19.068455280639096,65.27622204329536
41.81410056737308,67.7727299496345,-56.904790906958766,67.92735160539965,-8.889687913766537,19.06860103226188,65.27659639731297
42.61724714624746,67.77624630915047,-56.87092332833433,67.91787279198671,-8.396512303681604,19.068746721278167,65.27697387036784
43.425384311174525,67.77977646963531,-56.827889757664366,67.90843834066251,-7.898646396077829,19.068892347798883,65.27735446768015
44.23851207286687,67.78332037888514,-56.77521385440614,67.89904835615805,-7.396108001355088,19.06903791193496,65.27773819447013
45.05413044198738,67.78687798468971,-56.71241263760001,67.88970294323272,-6.8889156905814986,19.06918341379732,65.27812505595794
45.8722394291506,67.79044923483211,-56.63899672142674,67.8804022066759,-6.377088773411657,19.069328853496923,65.2785150573638
46.69533904492406,67.79403407708864,-56.554470565724,67.87114625130847,-5.860647283915114,19.069474231144707,65.2789082039079
47.52592929982967,67.79763245922852,-56.45833274330667,67.86193518198436,-5.339611996447275,19.069619546851644,65.27930450081045
48.36651020434506,67.8012443290137,-56.35007622666288,67.85276910359214,-4.814004442048002,19.069764800728688,65.27970395329166
49.21458176890496,67.80486963419865,-56.229188695602666,67.84364812105655,-4.283846895853209,19.069909992886828,65.28010656657169
50.07014400390253,67.80850832253017,-56.09515286575071,67.8345723393401,-3.749162357650988,19.070055123437044,65.28051234587078
50.92569691969076,67.81216034174712,-55.94744683676735,67.82554186344461,-3.2099745403362974,19.07020019249032,65.28092129640908
51.771240526583824,67.81582563958023,-55.785544459027264,67.81655679841282,-2.6663078515055645,19.07034520015767,65.28133342340683
52.59927483485845,67.81950416375187,-55.60891571818237,67.80761724932987,-2.1181873755669542,19.070490146550096,65.28174873208424
53.39729985475528,67.82319586197593,-55.41702713841248,67.798723321325,-1.5656388637418033,19.07063503177861,65.28216722766147
54.16281559648019,67.82690068195747,-55.20934220585233,67.78987511957308,-1.0086887171984529,19.070779855954243,65.28258891535873
54.89332207020577,67.8306185713926,-54.98532181281972,67.78107274929621,-0.4473639706940062,19.070924619188027,65.28301380039622
55.58881928607259,67.83434947796827,-54.74442472259925,67.77231631576522,0.1183077159010039,19.071069321591,65.28344188799416
56.24680725419063,67.83809334936201,-54.48610805503017,67.76360592430143,0.6882980729537991,19.071213963274207,65.28387318337272
56.86478598464058,67.84185013324175,-54.20982779380626,67.75494168027811,1.2625782359213673,19.071358544348715,65.28430769175213
57.43775548747532,67.84561977726563,-53.91503931619134,67.74632368912214,1.8411187523283277,19.071503064925583,65.28474541835256
57.97071577272119,67.84940222908179,-53.60119794581432,67.7377520563156,2.423889603007872,19.07164752511588,65.28518636839422
58.4661668503794,67.85319743632812,-53.26775952967547,67.72922688739736,3.010860237608618,19.07179192503069,65.2856305470973
58.92160873042741,67.8570053466321,-52.914181040098974,67.72074828796475,3.6019995948583485,19.071936264781105,65.28607795968202
59.33704142282029,67.8608259076106,-52.53992120076505,67.7123163636751,4.197276107587662,19.07208054447822,65.28652861136855
59.70246493749211,67.86465906686966,-52.144441134690055,67.70393122024744,4.796657722029018,19.07222476423313,65.28698250737713
60.010379284357285,67.86850477200424,-51.72720503195292,67.69559296346402,5.4001119313944415,19.07236892415696,65.28743965292792
60.25828447331197,67.87236297059813,-51.28768083557771,67.68730169917204,6.007605794223018,19.07251302436083,65.28790005324113
60.43618051423541,67.87623361022364,-50.82534094527384,67.6790575332852,6.619105930123524,19.072657064955862,65.28836371353697
60.54406741699137,67.88011663844148,-50.33966294019301,67.67086057178544,7.234578507672232,19.072801046053197,65.28883063903562
60.58694519142944,67.88401200280047,-49.83013032142755,67.66271092072441,7.853989239226038,19.07294496776398,65.28930083495729
60.569813847386456,67.88791965083749,-49.29623327247892,67.65460868622529,8.477303397410996,19.07308883019936,65.2897743065222
60.50517339468786,67.89183953007708,-48.73746943428057,67.6465539744843,9.104485853289908,19.073232633470493,65.29025105895052
60.39802384314908,67.89577158803144,-48.15334469245394,67.63854689177246,9.735501114078236,19.07337637768856,65.29073109746244
60.2583652025769,67.8997157722001,-47.54337397642242,67.63058754443713,10.37031333827769,19.073520062964725,65.29121442727819
60.08619748277081,67.90367203006976,-46.90708206989474,67.62267603890379,11.008886328231338,19.073663689410186,65.29170105361796
59.884020693524434,67.90764030911416,-46.244004430567685,67.61481248167757,11.651183522238508,19.07380725713612,65.29219098170194
59.64933484462691,67.91162055679376,-45.55368801660421,67.60699697934506,12.29716800836799,19.07395076625373,65.29268421675032
59.38213994586416,67.9156127205557,-44.83569211851584,67.59922963857584,12.946802552595464,19.074094216874236,65.29318076398332
59.082436007020405,67.91961674783346,-44.08958919477698,67.59151056612426,13.60004961913495,19.07423760910884,65.29368062862115
58.75522303787946,67.92363258604674,-43.31496570782339,67.58383986883106,14.256871382968257,19.07438094306877,65.29418381588394
58.39550104822611,67.9276601826013,-42.51142295695131,67.57621765362506,14.91722973457643,19.074524218865264,65.29469033099198
58.00077004784752,67.9316994848887,-41.678577906552015,67.56864402752491,15.58108626949975,19.07466743660955,65.2952001791654
57.568530046534576,67.93575044028617,-40.81606400934631,67.56111909764066,16.248402270108905,19.07481059641288,65.29571336562447
57.093781054083294,67.93981299615636,-39.9235320234534,67.55364297117549,16.919138694348298,19.074953698386512,65.2962298955893
56.58402308029616,67.94388709984723,-39.00065082095238,67.54621575542758,17.593256186212276,19.07509674264171,65.29674977428014
56.04425613498353,67.9479726986918,-38.04710818527288,67.53883755779155,18.27071510795863,19.07523972928973,65.29727300691721
55.47698022796499,67.95206974000799,-37.06261159459963,67.53150848576034,18.951475579307413,19.075382658441875,65.29779959872067
54.89219536907074,67.95617817109837,-36.04688898883621,67.52422864692687,19.635497508872668,19.07552553020942,65.29832955491072
54.29240156814296,67.96029793925014,-34.99968951923177,67.51699814898572,20.32274060307532,19.07566834470365,65.29886288070759
53.67009883503718,67.96442899173478,-33.92078428098783,67.50981709973495,21.013164359919525,19.075811102035875,65.29939958133143
53.02028717962368,67.96857127580792,-32.80996702883011,67.50268560707774,21.706728069771515,19.075953802317407,65.29993966200249
52.33046661178881,67.97272473870919,-31.66705487485301,67.49560377902412,22.403390815767555,19.07609644565956,65.30048312794095
51.595637141436406,67.976889327662,-30.49188896829235,67.48857172369279,23.10311146647796,19.07623903217366,65.30102998436699
50.810798778489165,67.98106498987336,-29.28433515808444,67.48158954931272,23.805848682966083,19.076381561971047,65.30158023650083
49.975951532889965,67.98525167253376,-28.044284639412695,67.47465736422502,24.51156094762485,19.07652403516305,65.30213388956267
49.08359541460331,67.98944932281688,-26.771654583727013,67.46777527688467,25.22020659266136,19.076666451861023,65.30269094877269
48.13373043361662,67.99365788787954,-25.466388749833023,67.46094339586212,25.93174380609952,19.07680881217634,65.30325141935111
47.13135659994167,67.99787731486138,-24.128458073987893,67.45416182984532,26.6461306226838,19.07695111622033,65.30381530651813
46.073973923615895,68.00210755088484,-22.75786123813601,67.44743068764122,27.363324921822954,19.077093364104392,65.30438261549394
44.95908241470383,68.00634854305486,-21.35462521490192,67.4407500781777,28.083284425200876,19.077235555939897,65.30495335149871
43.79418208329841,68.01060023845874,-19.918805786243297,67.43412011050528,28.805966686681565,19.07737769183824,65.3055275197527
42.57927293952236,68.01486258416601,-18.450488031640283,67.42754089379888,29.531329089269526,19.0775197719108,65.30610512547605
41.31935499352957,68.01913552722819,-16.949786782045535,67.42101253735962,30.259328841752545,19.077661796268995,65.306686173889
40.01942825550647,68.02341901467865,-15.416847037198645,67.41453515061664,30.98992296765413,19.07780376502423,65.30727067021172
38.67699273567335,68.02771299353248,-13.85184434529176,67.40810884312887,31.7230683086348,19.077945678287925,65.30785861966444
37.28954844428576,68.0320174107862,-12.25498514450122,67.40173372458678,32.45872154972514,19.078087536171505,65.30845002746734
35.85209539163586,68.03633221341772,-10.626507065745136,67.3954099048142,33.196839251639354,19.078229338786407,65.30904489884063
34.35963358805377,68.0406573483861,-8.966679195702966,67.3891374937702,33.9373778754175,19.07837108624407,65.30964323900449
32.80716304390898,68.04499276263137,-7.275802298812341,67.38291660155079,34.6802937846452,19.07851277865594,65.31024505317912
31.199683769611628,68.04933840307442,-5.554208996641361,67.3767473383908,35.42554323263373,19.078654416133485,65.31085034658473
29.544695775613924,68.05369421661678,-3.802263902721656,67.37062981466568,36.17308236407796,19.07879599878816,65.31145912444153
27.852199072411477,68.05806015014046,-2.0203637106200247,67.36456414089336,36.92286723119729,19.078937526731437,65.3120713919697
26.12719367054465,68.06243615050782,-0.2089372328957424,67.35855042773603,37.67485379485241,19.0790790000748,65.31268715438944
24.36967958059992,68.06682216456139,1.6315546108488164,67.35258878600199,38.42899791064308,19.079220418929733,65.31330641692097
22.57965681321125,68.07121813912366,3.500618857364657,67.3466793266475,39.1852553295044,19.07936178340774,65.31392918478446
20.767125379061408,68.07562402099695,5.397730614397034,67.34082216077864,39.943581712806754,19.079503093620318,65.31455546320012
18.93208528888333,68.08003975696332,7.322333226476324,67.33501739965314,40.70393263245237,19.07964434967897,65.31518525738814
17.067036553461485,68.08446529378423,9.273838491182609,67.32926515468225,41.46626355597378,19.079785551695227,65.31581857256873
15.181979183633192,68.08890057820058,11.25162692376398,67.32356553743257,42.230529846151725,19.07992669978061,65.3164554139621
13.279413190290004,68.0933455569324,13.255048067568325,67.31791865962795,42.99668678253564,19.08006779404665,65.31709578678844
11.356838584379023,68.09780017667879,15.283420848694805,67.31232463315142,43.76468958273762,19.080208834604896,65.31773969626795
9.42175537690426,68.10226438411766,17.336033974211944,67.30678357004687,44.5344934013708,19.08034982156689,65.31838714762081
7.476663578927965,68.10673812590568,19.41214637388096,67.3012955825212,45.30605331401531,19.080490755044192,65.31903814606724
5.524063201571988,68.11122134867804,21.51098768624968,67.29586078294602,46.07932431572945,19.08063163514836,65.31969269682745
3.571454256019094,68.11571399904837,23.631758790900363,67.2904792838596,46.85426134148946,19.08077246199097,65.32035080512159
1.6263367535143214,68.12021602360846,25.773632388001214,67.28515119796876,47.63081929380668,19.080913235683603,65.32101247616991
-0.3012892946336935,68.12472736892828,27.935753623954945,67.27987663815087,48.408953062770856,19.08105395633784,65.3216777151926
-2.2089238770513773,68.12924798155565,30.117240759916456,67.27465571745557,49.18861752376857,19.081194624065283,65.32234652740985
-4.086566982298887,68.13377780801622,32.317185879808214,67.26948854910688,49.96976752026001,19.081335238977527,65.32301891804183
-5.93171859886878,68.13831679481324,34.53465563533994,67.26437524650501,50.75235786113182,19.081475801186187,65.32369489230878
-7.749378715184682,68.14286488842743,36.76869202572446,67.25931592322833,51.536343340009495,19.081616310802872,65.3243744554309
-9.53954731959996,68.14742203531684,39.018313209445374,67.25431069303532,52.321678754400025,19.08175676793922,65.32505761262836
-11.299724400396396,68.15198818191669,41.28251434662874,67.24935966986648,53.10831890253604,19.08189717270685,65.32574436912138
-13.024909945782866,68.15656327463924,43.560268473643845,67.24446296784625,53.89621856530463,19.0820375252174,65.32643473013015
-14.705103943894011,68.16114725987357,45.850527413417815,67.23962070128502,54.68533250277865,19.08217782558253,65.32712870087488
-16.340306382788917,68.16574008398557,48.15222272319779,67.23483298468113,55.4756154653559,19.08231807391389,65.32782628657573
-17.918017250449807,68.17034169331762,50.46426667767449,67.23009993272271,56.26702218999935,19.082458270323137,65.32852749245296
-19.42573653478071,68.17495203418859,52.78555328240713,67.22542166028974,57.05950738158383,19.082598414921943,65.32923232372671
-20.86346422360615,68.17957105289364,55.1149593124215,67.22079828245599,57.85302570886694,19.082738507821997,65.32994078561725
-22.22620030466984,68.184198695704,57.45134537403126,67.21622991449104,58.64753182246753,19.08287854913496,65.3306528833447
-23.511444765633364,68.188834908867,59.79355699110124,67.21171667186223,59.44298038010086,19.083018538972546,65.3313686221293
-24.72419759407487,68.19347963860575,62.14042571635645,67.20725867023673,60.23932606431913,19.08315847744644,65.33208800719127
-25.86445877748776,68.19813283111911,64.4907702653157,67.20285602548337,61.03652357800637,19.08329836466836,65.33281104375077
-26.9322283032794,68.2027944325815,66.84339766893336,67.19850885367492,61.83452761763328,19.08343820075002,65.33353773702801
-27.9325061587698,68.20746438914279,69.19710444175546,67.19421727108987,62.63329284641172,19.08357798580313,65.33426809224318
-28.870292331190317,68.21214264692807,71.55067776379408,67.18998139421453,63.43277388948906,19.083717719939436,65.3350021146165
-29.750586807682357,68.2168291520377,73.90289667536737,67.18580133974507,64.2329253438096,19.083857403270663,65.33573980936816
-30.570889575296093,68.22152385054696,76.25253328415441,67.18167722458959,65.03370178051446,19.08399703590856,65.33648118171836
-31.33620062098916,68.22622668850603,78.59835398301973,67.17760916587011,65.83505774726322,19.08413661796488,65.33722623688729
-32.04901993162536,68.23093761193986,80.93912067730999,67.17359728092458,66.63694778523838,19.084276149551386,65.33797498009515
-32.70434749397338,68.23565656684798,83.27359202166068,67.16964168730907,67.4393264460819,19.08441563077983,65.33872741656216
-33.3021832947055,68.24038349920437,85.6005246673295,67.16574250279967,68.24214828663484,19.084555061762003,65.3394835515085
-33.845027320396326,68.2451183549574,87.91867452083736,67.16189984539473,69.04536784886332,19.08469444260968,65.34024339015437
-34.332879557521466,68.24986108002958,90.2267980139338,67.15811383331673,69.84893964711084,19.08483377343465,65.34100693771997
-34.77823999245632,68.25461162031753,92.52365338395472,67.15438458501458,70.65281816268265,19.084973054348705,65.34177419942552
-35.183608611474725,68.25936992169179,94.80800196250595,67.15071221916557,71.45695784576742,19.08511228546366,65.34254518049117
-35.56398540074775,68.26413592999671,97.0786094696034,67.14709685467749,72.26131312470181,19.085251466891314,65.34331988613715
-35.926870346342355,68.26890959105035,99.33424730992796,67.14353861069075,73.0658384078271,19.085390598743498,65.34409832158367
-36.28226343422021,68.27369085064423,101.57369386720003,67.14003760658052,73.870488085321,19.085529681132037,65.34488049205092
-36.63266465023635,68.2784796545434,103.79573579252764,67.13659396195881,74.67521654576625,19.08566871416875,65.3456664027591
-36.98057398013793,68.28327594848612,105.99916928396344,67.13320779667656,75.47997819270483,19.08580769796549,65.34645605892838
-37.325991409563,68.28807967818383,108.18280135604816,67.12987923082589,76.28472743904894,19.08594663263411,65.347249465779
-37.67141692403921,68.29289078932105,110.345451097762,67.12660838474208,77.0894186793542,19.08608551828645,65.34804662853114
-38.024350508982565,68.29770922755516,112.48595091608212,67.1233953790059,77.8940062620952,19.08622435503439,65.34884755240499
-38.38479214969618,68.30253493851635,114.60314776282236,67.1202403344456,78.69844449146126,19.086363142989786,65.34965224262078
-38.75024183136901,68.30736786780747,116.6959043442694,67.11714337213915,79.50268765867762,19.086501882264525,65.35046070439869
-39.118199539074624,68.31220796100393,118.76310031306986,67.1141046134164,80.30669005858917,19.086640572970488,65.35127294295889
-39.488665257769966,68.31705516365354,120.80363343918148,67.11112417986132,81.11040597675552,19.08677921521957,65.35208896352162
-39.85663897229407,68.32190942127642,122.81642075507796,67.10820219331404,81.91378968395304,19.086917809123676,65.35290877130707
-40.217120667366885,68.32677067936486,124.80039967150722,67.1053387758732,82.71679545284553,19.087056354794694,65.35373237153544
-40.56761032758799,68.3316388833832,126.75452906120194,67.102534049898,83.51937757469435,19.08719485234456,65.35455976942691
-40.908107937435375,68.33651397876777,128.67779030732024,67.09978813801055,84.32149035397936,19.087333301885177,65.35539097020171
-41.23611348126423,68.34139591092666,130.56918831327553,67.09710116309805,85.12308808831395,19.08747170352849,65.35622597908002
-41.55162694330568,68.3462846252397,132.4277524728885,67.09447324831488,85.92412506317203,19.08761005738643,65.35706480128202
-41.84714830766563,68.35118006705832,134.252537602568,67.09190451708503,86.72455556881053,19.08774836357094,65.35790744202794
-42.12517755832345,68.35608218170537,136.04262483776523,67.08939509310423,87.5243339172584,19.08788662219397,65.35875390653797
-42.37821467913084,68.36099091447514,137.79712249441195,67.08694510034222,88.32341443724329,19.088024833367484,65.35960420003232
-42.60875965381058,68.3659062106331,139.51516689468122,67.084554663045,89.12175145443928,19.08816299720344,65.36045832773117
-42.8068124659553,68.37082801541588,141.19592315605425,67.0822239057371,89.91929928655357,19.08830111381381,65.3613162948547
-42.97987309902636,68.37575627403112,142.8385859423139,67.07995295322385,90.71601226063548,19.08843918331058,65.36217810662318
-43.1279415363525,68.3806909316574,144.442380174713,67.0777419305937,91.5118447378569,19.08857720580573,65.36304376825672
-43.25101776112879,68.38563193344406,146.00656170221356,67.07559096322046,92.3067511310132,19.088715181411267,65.36391328497558
-43.35160175641532,68.39057922451117,147.53041793084716,67.07350017676558,93.100685899993,19.08885311023918,65.36478666199994
-43.42219350513608,68.39553274994934,149.01326841253572,67.07146969718053,93.8936035326013,19.08899099240149,65.36566390455
-43.46279299007772,68.40049245481967,150.45446539279206,67.0694996507091,94.68545854025268,19.089128828010207,65.36654501784597
-43.47340019388841,68.40545828415365,151.8533943154516,67.06759016388966,95.47620547591865,19.089266617177355,65.36743000710803
-43.45401509907659,68.41043018295301,153.20947428216735,67.06574136355755,96.2657989522001,19.08940436001496,65.36831887755636
-43.40713768800986,68.41540809618962,154.52215846483372,67.06395337684741,97.05419363739573,19.089542056635068,65.36921163441123
-43.34026794291376,68.42039196880543,155.7909344693613,67.06222633119553,97.84134423694984,19.08967970714972,65.37010828289277
-43.26090584587062,68.42538174571234,157.01532464930423,67.06056035434221,98.62720548979746,19.089817311670966,65.3710088282212
-43.176551378818345,68.43037737179208,158.19488636894638,67.05895557433414,99.4117321796119,19.089954870310876,65.37191327561673
-43.09720452354932,68.4353787918961,159.329212217406,67.05741211952672,100.19487913144836,19.090092383181503,65.37282163029955
-43.02786526170918,68.44038595084554,160.41793017589632,67.05593011858656,100.97660119378844,19.09022985039493,65.37373389748987
-42.97353357479573,68.44539879343102,161.46070373896578,67.05450970049374,101.75685323550384,19.090367272063244,65.37465008240788
-42.93670944415766,68.45041726441268,162.45723198956483,67.05315099454434,102.53559015774412,19.090504648298527,65.37557019027378
-42.90989285099354,68.45544130851997,163.40724962800508,67.05185413035275,103.31276689124208,19.09064197921287,65.37649422630776
-42.895583776350605,68.46047087045153,164.31052695526228,67.05061923785419,104.088338379042,19.09077926491838,65.37742219573002
-42.89128220112358,68.46550589487525,165.1668698114576,67.04944644730708,104.86225957416818,19.09091650552716,65.37835410376077
-42.90448810605358,68.47054632642799,165.97611947072974,67.04833588929547,105.6344854596176,19.091053701151345,65.37928995562021
-42.925201471726965,68.47559210971562,166.7381524934012,67.04728769473152,106.40497107592508,19.091190851903043,65.38022975652851
-42.95342227857424,68.48064318931283,167.45288053568518,67.04630199485803,107.17367154155016,19.0913279578944,65.38117351170591
-42.98665050686883,68.48569950976312,168.12025011703724,67.04537892125077,107.94054205133403,19.091465019237532,65.3821212263726
-43.019886136726086,68.49076101557867,168.7402423454523,67.0445186058211,108.70553786041056,19.09160203604462,65.38307290574876
-43.05562914810206,68.4958276512402,169.31287260137591,67.04372118081834,109.46861427571002,19.091739008427787,65.3840285550546
-43.09387952079243,68.50089936119697,169.83819018160807,67.04298677883237,110.22972665506214,19.0918759364992,65.38498817951032
-43.14463723443138,68.50597608986662,170.31627790528444,67.04231553279608,110.98883041390285,19.09201282037103,65.38595178433611
-43.21540226849051,68.51105778163515,170.7472516835288,67.04170757598794,111.7458810395904,19.09214966015545,65.38691937475217
-43.30617460227771,68.51614438085672,171.13126005181897,67.04116304203448,112.50083409857976,19.092286455964643,65.38789095597873
-43.41445421493603,68.52123583185367,171.46848366207658,67.04068206491287,113.25364524383792,19.0924232079108,65.38886653323594
-43.53774108544268,68.52633207891643,171.75913473357213,67.04026477895346,114.00427022988372,19.092559916106108,65.38984611174405
-43.6760351926078,68.53143306630332,172.00345646587712,67.03991131884234,114.75266491332307,19.092696580662786,65.39082969672322
-43.81933651507351,68.53653873824062,172.20172241815075,67.0396218196239,115.49878523888428,19.09283320169303,65.39181729339364
-43.96014503131273,68.54164903892234,172.35423585667692,67.03939641670348,116.24258724047168,19.09296977930905,65.39280890697555
-44.09596071962813,68.54676391251029,172.4613290705396,67.03923524584988,116.98402706462008,19.093106313623096,65.39380454268911
-44.22428355815106,68.55188330313385,172.52336265552654,67.03913844319796,117.72306100159908,19.09324280474738,65.39480420575455
-44.352613524840486,68.55700715488994,172.54072476741362,67.0391061452514,118.45964550941572,19.093379252794143,65.39580790139206
-44.478450597481896,68.56213541184306,172.51383034633298,67.03911743062855,119.19373721596408,19.093515657875635,65.39681563482183
-44.59929475368625,68.56726801802499,172.44312031448186,67.0391512516805,119.92529290670466,19.093652020104106,65.39782741126406
-44.71264597088894,68.57240491743487,172.32906075049866,67.03920755582193,120.65426952739136,19.09378833959181,65.39884323593895
-44.82600422634869,68.57754605403909,172.17214204439088,67.03928629051246,121.3806242092286,19.09392461645103,65.39986311406672
-44.93936949714656,68.5826913717712,171.97287803625903,67.03938740325634,122.1043143017073,19.09406085079403,65.40088705086754
-45.05774176018486,68.58784081453182,171.73180514073815,67.03951084160204,122.82529739836836,19.09419704273308,65.40191505156163
-45.18112099218613,68.59299432618857,171.44948145724538,67.03965655314198,123.54353134074152,19.09433319238049,65.40294712136917
-45.3095071696921,68.59815185057606,171.1264858646372,67.03982448551209,124.25897420784298,19.094469299848537,65.40398326551036
-45.44540026906266,68.60331333149571,170.7634170992883,67.04001458639155,124.9715843133707,19.09460536524953,65.40502348920542
-45.5788002664748,68.60847871271574,170.36089281687356,67.04022680350238,125.68132021060258,19.09474138869578,65.40606779767454
-45.70220713792163,68.61364793797111,169.91954863855693,67.04046108460908,126.38814070500212,19.0948773702996,65.4071161961379
-45.81562085921138,68.61882095096341,169.44003718288823,67.04071737751839,127.0920048745364,19.09501331017331,65.40816868981572
-45.916541405966285,68.62399769536084,168.92302708599954,67.04099563007885,127.79287208295456,19.09514920842925,65.4092252839282
-46.0049687536217,68.62917811479807,168.36920201312975,67.04129579018046,128.49070199340952,19.09528506517975,65.41028598369552
-46.075902877425,68.63436215287621,167.7792596642636,67.04161780575437,129.18545458980523,19.095420880537148,65.41135079433788
-46.13184375243465,68.63954975316281,167.15391077711843,67.04196162477254,129.87709018373982,19.09555665461381,65.41241972107551
-46.18029135351915,68.64474085919167,166.49387813099332,67.0423271952474,130.56556939967135,19.095692387522085,65.41349276912858
-46.2187456553561,68.64993541446285,165.79989555390978,67.04271446523147,131.25085315306706,19.095828079374336,65.4145699437173
-46.24970663243116,68.65513336244258,165.07270693422342,67.04312338281709,131.9329026436752,19.095963730282943,65.41565125006187
-46.26817425903709,68.66033464656324,164.3130652374988,67.043553896136,132.61167938605809,19.096099340360283,65.41673669338249
-46.27664850927282,68.66553921022323,163.5217315290601,67.04400595335912,133.28714525525663,19.09623490971873,65.41782627889934
-46.2776293570424,68.67074699678695,162.69947400226056,67.04447950269608,133.95926251069943,19.0963704384707,65.41892001183264
-46.27111677605407,68.67595794958476,161.84706701317683,67.04497449239499,134.62799381311694,19.09650592672857,65.42001789740257
-46.25711073981935,68.68117201191284,160.96529012362365,67.04549087074204,135.2933022565982,19.09664137460477,65.42111994082936
-46.235611221651965,68.68638912703324,160.05492715489078,67.04602858606125,135.95515140103788,19.09677678221169,65.42222614733318
-46.206618194667,68.69160923817375,159.1167652544361,67.04658758671401,136.61350528284356,19.09691214966177,65.42333652213425
-46.177631631779896,68.69683228852782,158.15159397743338,67.04716782109891,137.26832840390716,19.097047477067427,65.42445107045273
-46.14865150570554,68.70205822125457,157.16020438491717,67.04776923765125,137.9195857136009,19.0971827645411,65.42556979750887
-46.11467778895732,68.70728697947872,156.1433881608043,67.04839178484283,138.56724259118047,19.097318012195228,65.42669270852285
-46.07571045384616,68.71251850629054,155.1019367512986,67.0490354111816,139.21126483597808,19.097453220142267,65.42781980871484
-46.03174947247963,68.71775274474572,154.03664053073555,67.04970006521128,139.85161868752346,19.09758838849466,65.4289511033051
-45.98279481676103,68.72298963786542,152.94828799659206,67.05038569551108,140.4882708755963,19.097723517364887,65.43008659751376
-45.931346458388425,68.72822912863617,151.83766499369293,67.05109225069539,141.12118864856757,19.0978586068654,65.43122629656106
-45.8774043688538,68.73347116000983,150.7055539651308,67.05181967941341,141.7503397505202,19.09799365710869,65.43237020566721
-45.8234685194421,68.7387156749035,149.5527332269688,67.05256793034883,142.37569239142246,19.09812866820723,65.43351833005238
-45.769538881230346,68.74396261619957,148.3799762659293,67.0533369522196,142.99721525462564,19.098263640273515,65.43467067493675
-45.71311542508675,68.74921192674556,147.18805106158615,67.05412669377745,143.61487752693404,19.098398573420045,65.4358272455406
-45.6591981216698,68.75446354935413,145.97771943501522,67.05493710380775,144.22864891435995,19.09853346775932,65.43698804708404
-45.605286941427394,68.75971742680305,144.74973642493177,67.05576813112904,144.83849963618968,19.09866832340385,65.4381530847873
-45.55388185459596,68.76497350183512,143.50484969056922,67.05661972459279,145.44440041211948,19.09880314046616,65.43932236387059
-45.50748283119956,68.77023171715811,142.24379893844426,67.05749183308308,146.04632245722158,19.098937919058763,65.44049588955411
-45.47108984104905,68.77549201544478,140.96731536942747,67.05838440551624,146.64423749949987,19.0990726592942,65.44167366705805
-45.447202853741175,68.78075433933283,139.67612114404983,67.05929739084061,147.23811781266014,19.099207361285007,65.44285570160264
-45.43332183865776,68.78601863142474,138.370928866697,67.06023073803617,147.82793622720757,19.09934202514373,65.44404199840801
-45.42694676496482,68.7912848342879,137.05244109104393,67.06118439611421,148.41366610511852,19.09947665098292,65.4452325626944
-45.42557760161171,68.79655289045446,135.72134984839116,67.06215831411707,148.9952813149804,19.09961123891514,65.44642739968202
-45.42171431733029,68.80182274242135,134.37833619953625,67.06315244111782,149.57275624449306,19.099745789052957,65.44762651459106
-45.415356880634114,68.80709433265018,133.0240698116778,67.06416672621994,150.1460658355789,19.09988030150893,65.44882991264171
-45.40900525981756,68.81236760356724,131.65920856306218,67.06520111855694,150.71518560521355,19.100014776395657,65.45003759905418
-45.40765942295501,68.81764249756351,130.2843981777591,67.06625556729223,151.2800916519799,19.10014921382572,65.45124957904868
-45.41881933790003,68.82291895699453,128.90027189143456,67.06733002161859,151.840760670482,19.100283613911703,65.45246585784535
-45.442484972284575,68.82819692418045,127.50745014713536,67.06842443075806,152.39716995886573,19.100417976766217,65.45368644066447
-45.48115629351816,68.83347634140594,126.10654031928192,67.0695387439615,152.94929739731407,19.10055230250186,65.45491133272618
-45.53483326878702,68.83875715092017,124.69813646548252,67.07067291050836,153.497121427033,19.100686591231256,65.4561405392507
-45.60101586505339,68.84403929493685,123.2828191080651,67.07182687970635,154.04062105924234,19.10082084306702,65.45737406545825
-45.67970404905466,68.84932271563407,121.86115504796504,67.0730006008911,154.57977589204057,19.100955058121784,65.45861191656897
-45.76839778730259,68.85460735515439,120.4336972126451,67.07419402342596,155.1145661130111,19.101089236508177,65.45985409780313
-45.86209704608251,68.85989315560472,119.00098453824818,67.07540709670157,155.64497249495085,19.101223378338847,65.46110061438088
-45.965801791452606,68.8651800590564,117.56354188506012,67.07663977013566,156.17097639210127,19.101357483726435,65.46235147152242
-46.07951198924308,68.87046800754507,116.12187998526927,67.07789199317273,156.69255973688442,19.1014915527836,65.463606674448
-46.20072760505542,68.87575694307066,114.67649542278173,67.07916371528367,157.20970504452404,19.101625585623,65.46486622837776
-46.32194860426164,68.88104680759746,113.2278706452895,67.08045488596561,157.72239543293176,19.10175958235731,65.46613013853191
-46.44067495200349,68.88633754305395,111.77647400820152,67.08176545474149,158.23061464310433,19.1018935430992,65.46739841013068
-46.55440661319176,68.89162909133296,110.32275984912556,67.08309537115983,158.73434704527693,19.10202746796136,65.46867104839424
-46.66814355250551,68.89692139429144,108.86716859135772,67.0844445847944,159.23357763821292,19.10216135705647,65.4699480585428
-46.77938573439135,68.9022143937506,107.41012687495478,67.08581304524398,159.7282920490092,19.102295210497225,65.47122944579657
-46.890633123062656,68.90750803149584,105.95204771374635,67.08720070213204,160.21847653341962,19.10242902839634,65.47251521537571
-47.00188568249891,68.9128022492767,104.49333067677422,67.08860750510638,160.7041179766975,19.102562810866512,65.47380537250046
-47.11064337644494,68.9180969888069,103.03436209364008,67.09003340383896,161.1852038875815,19.102696558020455,65.475099922391
-47.21190616841024,68.92339219176428,101.57551528441212,67.09147834802552,161.66172237804824,19.102830269970912,65.47639887026754
-47.29317402166821,68.92868779979082,100.11715081488596,67.09294228738531,162.13366215096715,19.10296394683059,65.47770222135026
-47.35194689925553,68.93398375449256,98.65961677643207,67.09442517166084,162.60101251779423,19.103097588712235,65.47900998085937
-47.38322476397137,68.93927999743967,97.2032490877589,67.09592695061752,163.06376341679268,19.10323119572859,65.48032215401508
-47.38200757837679,68.9445764701664,95.7483718153957,67.09744757404347,163.52190539489192,19.103364767992403,65.48163874603758
-47.35079530479399,68.94987311417106,94.29529751020894,67.0989869917491,163.97542956794246,19.103498305616437,65.48295976214706
-47.28958790530567,68.955169870916,92.84432755795164,67.10054515356697,164.42432760363633,19.103631808713445,65.48428520756372
-47.20338534175435,68.96046668182764,91.39575254219508,67.1021220093514,164.86859174922887,19.103765277396203,65.48561508750777
-47.09718757574167,68.96576348829647,89.9498526178319,67.10371750897825,165.30821488192794,19.10389871177749,65.48694940719942
-46.9709945686278,68.97106023167694,88.50689789335678,67.10533160234456,165.7431905376825,19.104032111970085,65.48828817185884
-46.8248062815307,68.97635685328761,87.06714882032233,67.10696423936837,166.17351289623673,19.104165478086784,65.48963138670625
-46.65862267532556,68.98165329441098,85.63085658822277,67.10861536998836,166.5991767445849,19.104298810240376,65.49097905696182
-46.47244371064407,68.98694949629363,84.1982635230878,67.11028494416358,167.02017745571834,19.104432108543676,65.49233118784578
-46.26376934787388,68.99224540014613,82.76960348827485,67.11197291187322,167.43651098266565,19.10456537310948,65.49368778457833
-46.035099547157856,68.99754094714308,81.34510228581439,67.11367922311629,167.8481738456928,19.10469860405062,65.49504885237965
-45.78643426839358,69.00283607842306,79.92497805687766,67.11540382791131,168.2551631200419,19.10483180147991,65.49641439646996
-45.525273471232616,69.00813073508864,78.50944168083802,67.11714667629612,168.6574764389657,19.104964965510185,65.49778442206942
-45.25161711507999,69.0134248582065,77.09869717296041,67.11890771832749,169.0551120120573,19.10509809625428,65.49915893439827
-44.96546515909353,69.01871838880723,75.69294208011951,67.120686904081,169.44806865149775,19.105231193825045,65.50053793867669
-44.674317562183305,69.02401126788548,74.29236787228795,67.12248418365058,169.8363457767087,19.10536425833532,65.50192144012487
-44.38067428301097,69.02930343639993,72.89716032605261,67.1242995071484,170.21994339741025,19.10549728989797,65.50330944396305
-44.09703527998925,69.03459483527325,71.50749989665195,67.12613282470448,170.59886211935253,19.10563028862586,65.50470195541139
-43.82840051128135,69.03988540539216,70.12356207732333,67.12798408646648,170.97310317272058,19.105763254631857,65.5060989796901
-43.5747699348003,69.04517508760742,68.74551774721934,67.12985324259942,171.34266843370008,19.10589618802884,65.50750052201937
-43.3461435082085,69.05046382273382,67.3735335093963,67.13174024328539,171.70756043182524,19.1060290889297,65.5089065876194
-43.14752118891709,69.05575155155022,66.0077720190807,67.1336450387233,172.06778233573033,19.10616195744731,65.5103171817104
-42.9814029340854,69.06103821479952,64.64839230232269,67.13556757912859,172.42333791730522,19.106294793694584,65.5117323095126
-42.84528870062042,69.06632375318871,63.29555006590719,67.13750781473297,172.774231523767,19.106427597784425,65.51315197624612
-42.73917844517624,69.07160810738888,61.94939799861368,67.13946569578417,173.1204680871599,19.10656036982973,65.51457618713123
-42.65807212415353,69.07689121803521,60.61008606245285,67.14144117254567,173.46205314914891,19.10669310994344,65.51600494738808
-42.60196969369899,69.08217302572695,59.27776177276074,67.14343419529638,173.79899286421602,19.10682581823845,65.51743826223692
-42.57087110970485,69.08745347102753,57.95257046731458,67.14544471433045,174.13129398863617,19.106958494827712,65.5188761368979
-42.564776327808325,69.09273249446451,56.63465556489108,67.14747267995698,174.45896386998885,19.10709113982416,65.52031857659125
-42.58618530339112,69.09801003652959,55.32415881291814,67.14951804249974,174.78201045195993,19.107223753340733,65.52176558653714
-42.63509799157893,69.10328603767869,54.02122052327424,67.1515807522969,175.10044230181165,19.107356335490387,65.52321717195579
-42.70901434724093,69.10856043833188,52.72597979555171,67.1536607597008,175.41426861625052,19.107488886386072,65.52467333806742
-42.79793432498927,69.1138331788735,51.43857472856377,67.15575801507768,175.72349918355897,19.10762140614076,65.52613409009219
-42.89935787917865,69.11910419965207,50.15914262268136,67.1578724688074,176.028144353635,19.10775389486742,65.5275994332503
-43.01328496390576,69.12437344098042,48.88782017550746,67.1600040712832,176.328215038075,19.107886352679024,65.52906937276198
-43.129715533008856,69.12964084313563,47.62474367126136,67.16215277291143,176.6237227107851,19.108018779688564,65.53054391384741
-43.25114954006728,69.13490634635913,46.37004916262515,67.16431852411131,176.91467940912082,19.10815117600902,65.53202306172679
-43.37258693840101,69.14016989085664,45.123872643728575,67.16650127531463,177.201097742931,19.1082835417534,65.5335068216203
-43.4915276810702,69.14543141679827,43.8863502128757,67.16870097696555,177.48299088937068,19.108415877034705,65.53499519874818
-43.61297172087471,69.15069086431852,42.65761822303188,67.17091757952032,177.7603725734815,19.10854818196594,65.53648819833062
-43.72941901035372,69.15594817351628,41.43781341836526,67.17315103344698,178.03325706405053,19.108680456660124,65.53798582558778
-43.833369501785256,69.1612032844549,40.22707305661456,67.1754012892252,178.30165918474574,19.108812701230285,65.53948808573988
-43.91982314718576,69.16645613716221,39.02553501819135,67.17766829734596,178.56559431101462,19.108944915789447,65.54099498400714
-43.99127989830969,69.17170667163057,37.83333790303464,67.17995200831128,178.82507834536602,19.10907710045065,65.54250652560974
-44.04273970664912,69.17695482781686,36.65062111634547,67.18225237263401,179.08012768579,19.109209255326935,65.5440227157679
-44.07670252343325,69.1822005456425,35.47752494443925,67.18456934083758,179.33075920207054,19.10934138053136,65.54554355970177
-44.09566829962813,69.18744376499359,34.31419062103698,67.18690286345577,179.57699023474586,19.10947347617697,65.5470690626316
-44.09713698593617,69.19268442572084,33.160760382886004,67.18925289103237,179.8188386093358,19.109605542376837,65.54859922977757
-44.08610853279578,69.19792246763963,32.01737751285944,67.19161937412102,180.05632263632285,19.109737579244022,65.55013406635986
-44.06008289038102,69.20315783053009,30.88418636880061,67.19400226328491,180.28946108950583,19.109869586891605,65.55167357759872
-44.01656000860116,69.20839045413709,29.761332397185107,67.19640150909657,180.51827317748143,19.110001565432672,65.55321776871428
-43.95053983710038,69.21362027817031,28.648962131481603,67.19881706213764,180.7427785156293,19.110133514980312,65.55476664492679
-43.86952232525736,69.21884724230426,27.54722317453201,67.2012488729985,180.96299710597737,19.11026543564762,65.55632021145644
-43.776007422184975,69.22407128617837,26.45626416285748,67.20369689227823,181.1789493397015,19.11039732754769,65.5578784735234
-43.67249507672988,69.22929234939696,25.37623471109855,67.20616107058414,181.3906560148791,19.11052919079365,65.55944143634791
-43.56648523747223,69.23451037152932,24.307285337158927,67.20864135853175,181.598138339982,19.1106610254986,65.56100910515015
-43.457977852725314,69.2397252921098,23.249567370127707,67.21113770674434,181.80141791572757,19.11079283177566,65.56258148515032
-43.34697287053524,69.24493705063774,22.20323284181973,67.21365006585283,182.0005167100429,19.11092460973797,65.5641585815686
-43.2334702386806,69.25014558657769,21.168434360682344,67.21617838649557,182.19545703351736,19.11105635949866,65.56574039962524
-43.11746990467219,69.25535083935927,20.145324966784457,67.21872261931797,182.38626152271948,19.111188081170877,65.56732694454038
-43.00647181575266,69.26055274837738,19.134057968458315,67.22128271497235,182.572953146132,19.11131977486776,65.56891822153426
-42.905475918896215,69.26575125299212,18.134786762677457,67.22385862411771,182.7555552253248,19.111451440702464,65.57051423582705
-42.81948216080838,69.27094629252896,17.147664641568245,67.22645029741942,182.9340914418497,19.111583078788158,65.57211499263899
-42.74099048792563,69.27613780627871,16.172844586909097,67.22905768554908,183.10858582247695,19.111714689238,65.57372049719024
-42.675000846415166,69.2813257334976,15.210479053585845,67.23168073918418,183.2790627175263,19.11184627216518,65.57533075470099
-42.61901318217464,69.28651001340732,14.260719742600532,67.23431940900795,183.4455467796688,19.111977827682864,65.57694577039148
-42.56552744083185,69.29169058519514,13.323717364888822,67.23697364570909,183.60806294319704,19.112109355904245,65.57856554948188
-42.51704356774452,69.2968673880139,12.399621398202251,67.23964339998147,183.76663640376057,19.11224085694252,65.5801900971924
-42.47106150800001,69.30204036098205,11.488579839455795,67.24232862252406,183.9212925985651,19.112372330910883,65.58181941874324
-42.43258120641512,69.3072094431838,10.590738954056942,67.24502926404051,184.07205719441023,19.11250377792254,65.58345351935459
-42.4066026075358,69.31237457366912,9.706243022334856,67.24774527523907,184.21895609094136,19.11263519809072,65.58509240424667
-42.39812565563693,69.31753569145378,8.835234081620492,67.25047660683224,184.3620154243561,19.112766591528622,65.58673607863965
-42.40215029472213,69.3226927355195,7.977851661820999,67.25322320953663,184.501261564185,19.11289795834949,65.58838454775375
-42.4186764685235,69.32784564481389,7.134232513340109,67.25598503407267,184.63672111052105,19.113029298666543,65.59003781680914
-42.44020412050139,69.33299435825064,6.304510327893183,67.25876203116442,184.7684208769384,19.11316061259303,65.59169589102606
-42.464233193844265,69.33813881470951,5.488815453778059,67.2615541515393,184.89638786647663,19.113291900242192,65.59335877562471
-42.48326363146846,69.34327895303642,4.68727460731904,67.26436134592792,185.02064927019927,19.113423161727283,65.59502647582524
-42.49479537601797,69.3484147120435,3.900010581672497,67.26718356506379,185.1412324735669,19.11355439716156,65.59669899684788
-42.49382836986432,69.3535460305092,3.1271419534825142,67.27002075968313,185.25816504848916,19.113685606658294,65.5983763439128
-42.47786255510633,69.35867284717833,2.368782788032597,67.27287288052464,185.3714747384287,19.113816790330752,65.60005852224027
-42.43939787356998,69.3637951007621,1.625042344554508,67.27573987832928,185.4811894439338,19.11394794829221,65.60174553705043
-42.378434266808256,69.36891272993833,0.8960247838559994,67.27862170383997,185.5873372159731,19.11407908065596,65.6034373935635
-42.29247167610095,69.37402567335131,0.1818288792165177,67.28151830780158,185.68994627182667,19.114210187535296,65.60513409699966
-42.18901004245453,69.37913386961206,-0.5174522705690308,67.28442964096038,185.78904502615103,19.1143412690435,65.60683565257914
-42.06554930660202,69.38423725729832,-1.2017315271293612,67.28735565406416,185.88466210770216,19.11447232529389,65.6085420655221
-41.92708940900283,69.38933577495466,-1.8709279960088523,67.29029629786173,185.9768263543349,19.11460335639977,65.61025334104876
-41.78113028984264,69.39442936109249,-2.524967304578972,67.29325152310287,186.06556680103145,19.114734362474454,65.61196948437933
-41.62767188903327,69.39951795419024,-3.163781871760037,67.29622128053805,186.1509126683339,19.11486534363128,65.61369050073397
-41.46671414621257,69.4046014926934,-3.787311167299421,67.29920552091822,186.2328933511772,19.114996299983567,65.61541639533293
-41.29575700074434,69.40967991501458,-4.395501957680814,67.30220419499457,186.3115384081197,19.11512723164465,65.61714717339639
-41.112300391718165,69.4147531595336,-4.988308535754435,67.30521725351835,186.38687754359037,19.11525813872788,65.61888284014454
-40.91634425794936,69.41982116459761,-5.565692932395194,67.30824464724061,186.45894057577084,19.1153890213466,65.62062340079756
-40.70788853797891,69.42488386852108,-6.1276251095417535,67.31128632691204,186.52775741224465,19.11551987961417,65.6223688605757
-40.48943317007331,69.42994120958606,-6.674083134673268,67.31434224328271,186.59335805554312,19.115650713643948,65.62411922469911
-40.26847809222457,69.43499312604206,-7.205053338340377,67.31741234710182,186.65577261645169,19.115781523549305,65.62587449838801
-40.04502324215008,69.44003955610633,-7.720530457924653,67.32049658911764,186.71503130555996,19.11591230944361,65.62763468686262
-39.82406855729263,69.44508043796378,-8.22051777029968,67.32359492007704,186.7711644030526,19.11604307144025,65.6293997953431
-39.60561397482027,69.45011570976723,-8.705027213678832,67.32670729072557,186.8242022362504,19.116173809652626,65.63116982904967
-39.399659431626326,69.45514530963736,-9.174079496375008,67.32983365180701,186.8741751870311,19.116304524194103,65.63294479320253
-39.20620486432933,69.46016917566288,-9.62770418918165,67.33297395406328,186.9211137069945,19.116435215178107,65.63472469302187
-39.027750209273,69.46518724590067,-10.065939799469769,67.33612814823422,186.96504831823128,19.11656588271804,65.63650953372787
-38.856795402526224,69.47019945837572,-10.488833827339503,67.33929618505734,187.00600960707223,19.11669652692731,65.6382993205408
-38.69084037988301,69.4752057510814,-10.896442805038468,67.34247801526762,187.044028218191,19.11682714791933,65.64009405868077
-38.52738507686249,69.48020606197947,-11.288832320703712,67.34567358959734,187.0791348416795,19.11695774580755,65.64189375336804
-38.36392942870893,69.48520032900014,-11.666077027500222,67.34888285877585,187.11136018571452,19.11708832070538,65.64369840982279
-38.19547337039174,69.4901884900423,-12.028260638901322,67.35210577352935,187.14073495694652,19.117218872726276,65.64550803326522
-38.01951683660543,69.4951704829735,-12.375475909844226,67.35534228458066,187.1672898707412,19.117349401983663,65.6473226289155
-37.841059761769685,69.50014624563009,-12.707824602653602,67.35859234264909,187.19105566913623,19.11747990859101,65.6491422019939
-37.66010208002936,69.50511571581733,-13.025417436302028,67.36185589845017,187.2120631243756,19.11761039266178,65.65096675772052
-37.47664372525451,69.51007883130949,-13.328374017596722,67.3651329026955,187.2303430353945,19.117740854309424,65.65279630131568
-37.29318463104044,69.51503552985001,-13.616822753590668,67.36842330609245,187.24592622463075,19.11787129364742,65.65463083799945
-37.11222473070774,69.51998574915147,-13.890900746082645,67.37172705934408,187.258843535158,19.11800171078924,65.65647037299213
-36.94126395730234,69.52492942689587,-14.15075367063833,67.37504411314887,187.26912582813787,19.118132105848368,65.65831491151386
-36.77530224359556,69.52986650073458,-14.396535643103078,67.3783744182005,187.2768039805873,19.118262478938306,65.66016445878489
-36.60933952208421,69.53479690828857,-14.628409075743946,67.38171792518767,187.281908876079,19.11839283017254,65.66201902002535
-36.4408757249906,69.5397205871485,-14.846544523468856,67.38507458479397,187.28447138099412,19.118523159664576,65.66387860045549
-36.27241078426268,69.54463747487473,-15.051120519567228,67.38844434769754,187.28452232845825,19.118653467527924,65.66574320529551
-36.11144463157408,69.54954750899756,-15.242323401128338,67.39182716457101,187.2820925320904,19.1187837538761,65.66761283976558
-35.95047719832424,69.55445062701733,-15.420347125692778,67.3952229860812,187.2772128074282,19.118914018822636,65.66948750908591
-35.789508415638515,69.55934676640446,-15.585393081406243,67.39863176288897,187.26991397151275,19.11904426248104,65.67136721847673
-35.62853821436823,69.56423586459962,-15.737669892803003,67.40205344564905,187.26022682062893,19.11917448496485,65.67325197315819
-35.47256652509084,69.56911785901383,-15.87739322334746,67.40548798500974,187.24818211571093,19.119304686387636,65.67514177835052
-35.32159327811004,69.57399268702865,-16.004785574179706,67.40893533161288,187.23381059754325,19.11943486686291,65.67703663927392
-35.173118403455895,69.57886028599614,-16.120076077516586,67.4123954360935,187.2171430022412,19.119565026504247,65.67893656114855
-35.02714183088497,69.58372059323918,-16.223500284053053,67.41586824907968,187.1982100401168,19.1196951654252,65.68084154919464
-34.886163489880474,69.58857354605145,-16.315299945804703,67.41935372119241,187.17704235268343,19.11982528373934,65.68275160863242
-34.7501833096524,69.59341908169763,-16.395722797415345,67.42285180304532,187.15367048468605,19.119955381560235,65.68466674468202
-34.60920121913773,69.59825713741347,-16.4650223389947,67.42636244524452,187.12812487853205,19.12008545900147,65.6865869625637
-34.463217147000535,69.60308765040593,-16.523457622393273,67.42988559838842,187.1004358763639,19.12021551617663,65.68851226749761
-34.31223102163216,69.60791055785339,-16.571293041321866,67.43342121306753,187.0706337223909,19.1203455531993,65.690442664704
-34.15124277115143,69.61272579690565,-16.6087981245685,67.43696923986427,187.03874856547756,19.12047557018308,65.69237815940302
-33.977752323404815,69.61753330468414,-16.636247331442256,67.44052962935277,187.00481046198377,19.12060556724159,65.69431875681492
-33.78675960596664,69.62233301828205,-16.653919849310583,67.44410233209871,186.96884937885432,19.120735544488426,65.69626446215983
-33.58576454613922,69.62712487476443,-16.662099393665663,67.4476872986591,186.9308951969531,19.120865502037205,65.69821528065802
-33.38226707095316,69.63190881116836,-16.661074011041563,67.45128447958213,186.8909777146393,19.12099544000156,65.70017121752964
-33.181267107167514,69.63668476450302,-16.651135884307855,67.45489382540694,186.84912664420293,19.12112535849512,65.7021322779949
-32.980264581269985,69.64145267174993,-16.63258113907313,67.45851528666346,186.80537159377977,19.121255257631518,65.70409846727402
-32.7742594194772,69.64621246986302,-16.605709650342796,67.46214881387223,186.7597420568745,19.12138513752439,65.7060697905872
-32.5682515477349,69.65096409576873,-16.570824849333228,67.46579435754423,186.71226743162487,19.121514998287395,65.70804625315459
-32.36224089171823,69.65570748636625,-16.528233529392498,67.46945186818064,186.6629770476677,19.12164484003419,65.71002786019643
-32.15622737683192,69.66044257852761,-16.478245648345304,67.4731212962727,186.61190017846863,19.12177466287843,65.7120146169329
-31.94771092821062,69.66516930909779,-16.421174124665715,67.47680259230154,186.55906604649084,19.12190446693379,65.71400652858425
-31.74169147071908,69.66988761489492,-16.35733462617258,67.48049570673797,186.5045038285761,19.12203425231393,65.71600360037061
-31.543168928952458,69.6745974327104,-16.287045350895706,67.48420059004229,186.44824265415707,19.12216401913255,65.71800583751222
-31.357143227236616,69.679298699309,-16.210626800717804,67.48791719266418,186.39031158891933,19.122293767503336,65.72001324522927
-31.188614289628365,69.68399135142914,-16.12840154987126,67.49164546504242,186.33073962604425,19.12242349753997,65.72202582874193
-31.03758203991576,69.6886753257829,-16.040694010987572,67.4953853576048,186.2695556997851,19.12255320935615,65.72404359327047
-30.911546401618416,69.6933505590562,-15.947830199619254,67.49913682076786,186.2067886844828,19.12268290306559,65.72606654403499
-30.813007297987788,69.69801698790904,-15.85013749517946,67.50289980493682,186.14246736426225,19.122812578782,65.72809468625577
-30.741964652007503,69.70267454897551,-15.747944395159898,67.50667426050528,186.07662040291825,19.1229422366191,65.73012802515298
-30.700918386393653,69.70732317886404,-15.641580260979032,67.51046013785513,186.00927632136617,19.123071876690616,65.73216656594681
-30.69236842359513,69.71196281415759,-15.5313750554803,67.51425738735638,185.9404634826548,19.12320149911028,65.73421031385749
-30.716314685793968,69.71659339141367,-15.417659072744131,67.51806595936694,185.8702100845381,19.12333110399182,65.7362592741052
-30.76525709490566,69.72121484716459,-15.30076266135282,67.52188580423243,185.79854414484691,19.123460691448997,65.73831345191012
-30.831695572579516,69.72582711791762,-15.181015942896863,67.52571687228607,185.72549348703583,19.12359026159554,65.74037285249247
-30.913130040199004,69.73043014015514,-15.058748528162845,67.52955911384848,185.6510857332792,19.12371981454522,65.74243748107246
-31.009560418882124,69.73502385033474,-14.93428923358183,67.53341247922751,185.57534829035865,19.123849350411795,65.74450734287025
-31.11848662948176,69.7396081848895,-14.807965799458389,67.53727691871805,185.4983083430942,19.12397886930904,65.74658244310608
-31.234908592586045,69.74418308022805,-14.680104609929868,67.54115238260191,185.4199928774501,19.12410837135072,65.74866278700013
-31.35632622851876,69.74874847273475,-14.55103041389522,67.54503882114756,185.34042871117748,19.124237856650623,65.75074837977259
-31.48273945733972,69.7533042987699,-14.421066046817195,67.54893618461007,185.2596425098563,19.124367325322535,65.75283922664367
-31.616648198845127,69.75785049466988,-14.290532154826334,67.55284442323088,185.17766078833276,19.124496777480257,65.75493533283358
-31.755552372568022,69.76238699674731,-14.159746923397126,67.55676348723765,185.0945098901712,19.12462621323758,65.75703670356249
-31.89445189777867,69.76691374129122,-14.029025811825688,67.56069332684406,185.0102159524959,19.12475563270831,65.75914334405064
-32.03334669348495,69.77143066456725,-13.898681292500466,67.56463389224967,184.92480488573187,19.124885036006276,65.7612552595182
-32.16223667843282,69.77593770281776,-13.769022592409954,67.5685851336398,184.8383023756205,19.125014423245272,65.76337245518538
-32.2811217711067,69.78043479226207,-13.640355435015842,67.5725470011853,184.7507338927512,19.12514379453914,65.76549493627236
-32.38750188972993,69.7849218690966,-13.51298178319476,67.5765194450424,184.6621247022272,19.125273150001718,65.76762270799937
-32.47637695226523,69.78939886949505,-13.3871995860149,67.58050241535253,184.5724998734624,19.125402489746826,65.76975577558657
-32.54524687641509,69.79386572960854,-13.263302531608684,67.58449586224225,184.48188429010656,19.125531813888315,65.77189414425419
-32.59411157962227,69.79832238556588,-13.141579806185293,67.58849973582296,184.39030266009485,19.12566112254004,65.77403781922241
-32.61547097907026,69.80276877347364,-13.022315858041225,67.59251398619085,184.29777951844144,19.125790415815857,65.77618680571145
-32.60682499168372,69.80720482941642,-12.905790165615628,67.59653856342665,184.20433920801736,19.125919693829623,65.77834110894149
-32.57067353412897,69.81163048945695,-12.792277008487495,67.60057341759553,184.11000584568885,19.126048956695215,65.78050073413276
-32.50951652281448,69.81604568963633,-12.682045240237656,67.6046184987469,184.0148032959476,19.12617820452651,65.78266568650541
-32.423353873891344,69.8204503659742,-12.57535806315633,67.6086737569143,183.9187551520307,19.126307437437383,65.78483597127966
-32.3121855032538,69.82484445446892,-12.472472805495173,67.61273914211525,183.82188473190672,19.12643665554172,65.78701159367574
-32.181011326539675,69.82922789109776,-12.373640701998362,67.61681460435095,183.72421509650133,19.12656585895342,65.7891925589138
-32.03483125913096,69.83360061181706,-12.279106678655936,67.62090009360634,183.6257690532716,19.126695047786388,65.79137887221405
-31.876145216154285,69.83796255256249,-12.189109142662652,67.62499555984981,183.52656913036867,19.12682422215452,65.79357053879674
-31.704953112481448,69.8423136492491,-12.103879778435612,67.62910095303305,183.4266375582773,19.12695338217174,65.795767563882
-31.52625486272995,69.84665383777174,-12.023643350758846,67.63321622309091,183.32599627368552,19.127082527951963,65.79796995269007
-31.340050381263524,69.85098305400497,-11.94861751599674,67.63734131994133,183.2246669308265,19.127211659609117,65.80017771044113
-31.15133958219268,69.85530123380349,-11.879012641508892,67.64147619348503,183.12267091291065,19.12734077725712,65.80239084235538
-30.95762237937525,69.85960831300218,-11.815031632762713,67.6456207936055,183.02002934364648,19.12746988100993,65.80460935365305
-30.76389868641696,69.86390422741643,-11.756869767692372,67.64977507016876,182.91676309884625,19.12759897098148,65.80683324955427
-30.572668416671952,69.86818891284217,-11.704714538592947,67.65393897302323,182.8128928107361,19.12772804728572,65.80906253527932
-30.3839314832434,69.87246230505623,-11.658745502751962,67.65811245199964,182.70843885021256,19.12785711003661,65.81129721604835
-30.20518779898405,69.87672433981646,-11.619134143249696,67.6622954569108,182.6034212944206,19.12798615934811,65.81353729708158
-30.038937276496817,69.88097495286193,-11.58604374124736,67.66648793755147,182.497859909164,19.128115195334203,65.81578278359919
-29.88517982813537,69.88521407991313,-11.559629261312844,67.67068984369826,182.3917741535239,19.128244218108843,65.81803368082137
-29.751415366004743,69.88944165667218,-11.540037251222302,67.67490112510944,182.2851831919275,19.128373227786025,65.82028999396837
-29.637643801961907,69.89365761882307,-11.527405756708731,67.67912173152477,182.17810590628545,19.128502224479732,65.82255172826035
-29.54386504761639,69.89786190203182,-11.521864250319805,67.68335161266545,182.0705609081964,19.128631208303965,65.8248188889175
-29.470079014330903,69.9020544419467,-11.523533572583592,67.68759071823385,181.9625665512155,19.12876017937272,65.82709148116005
-29.41378561322196,69.90623517419843,-11.532525883576897,67.69183899791348,181.85414093580675,19.12888913779999,65.82936951020817
-29.37498475516048,69.91040403440041,-11.548944623232806,67.69609640136875,181.7453018922205,19.12901808369981,65.83165298128206
-29.351176350772445,69.91456095814891,-11.57288447879744,67.70036287824492,181.63606694867352,19.12914701718619,65.83394189960197
-29.339860310439555,69.91870588102329,-11.604431358950071,67.70463837816787,181.52645331433985,19.12927593837316,65.83623627038803
-29.34353654429984,69.92283873858622,-11.643662376576644,67.70892285074405,181.4164778845319,19.12940484737474,65.83853609886047
-29.362204962248324,69.92695946638386,-11.690645843634163,67.71321624556022,181.3061572533108,19.12953374430497,65.8408413902395
-29.38836547393772,69.93106799994614,-11.745441280076465,67.71751851218343,181.19550772614755,19.129662629277902,65.84315214974531
-29.42451798877904,69.93516427478693,-11.808099435802006,67.72182960016085,181.0845453326316,19.129791502407585,65.84546838259807
-29.468162415942302,69.93924822640419,-11.878662322775732,67.72614945901954,180.97328583922584,19.129920363808072,65.84779009401802
-29.51929866435724,69.9433197902804,-11.957163254555503,67.73047803826643,180.8617447620643,19.130049213593423,65.85011728922535
-29.582926642713907,69.9473789018825,-12.043626891392162,67.73481528738816,180.7499373724137,19.13017805187771,65.85244997344026
-29.65154625946346,69.95142549666238,-12.138069290697937,67.73916115585088,180.6378786800406,19.13030687877501,65.85478815188293
-29.722657422818777,69.95545951005688,-12.240497964646735,67.74351559310017,180.52558340185965,19.1304356943994,65.85713182977358
-29.78626004075524,69.95948087748818,-12.350911947438448,67.74787854856089,180.41306594537585,19.130564498864967,65.85948101233238
-29.844854021011383,69.96348953436389,-12.469301873983513,67.75224997163706,180.30034041429548,19.13069329228581,65.86183570477957
-29.89843927108965,69.96748541607742,-12.59565007030202,67.7566298117117,180.18742062154928,19.130822074776024,65.8641959123353
-29.944515698257103,69.97146845800806,-12.729930654297457,67.76101801814673,180.07432010234697,19.13095084644972,65.86656164021983
-29.988083209546154,69.97543859552133,-12.872109644788942,67.76541454028278,179.96105212726184,19.131079607421,65.8689328936533
-30.029141711755315,69.9793957639691,-13.022145077624252,67.76981932743912,179.8476297153432,19.131208357803988,65.87130967785593
-30.06769111144991,69.98333989868995,-13.179987129320182,67.77423232891353,179.73406563987686,19.13133709771281,65.87369199804795
-30.106231314962884,69.98727093500928,-13.345578249615455,67.77865349398212,179.6203724120361,19.1314658272616,65.87607985944952
-30.13976222839549,69.99118880823958,-13.518853304572538,67.78308277189922,179.50656224979966,19.131594546564493,65.87847326728084
-30.1682837576181,69.99509345368078,-13.69973973177134,67.78752011189732,179.39264706164852,19.13172325573563,65.88087222676212
-30.191795808270957,69.99898480662026,-13.888157708357303,67.79196546318678,179.2786384524178,19.13185195488916,65.88327674311358
-30.20779828576495,70.00286280233328,-14.08402033123885,67.79641877495591,179.1645477365466,19.13198064413923,65.88568682155538
-30.21379109528241,70.00672737608315,-14.28723380794692,67.80087999637067,179.05038595134613,19.13210932360002,65.88810246730775
-30.212274141777865,70.01057846312145,-14.49769765760024,67.80534907657464,178.93616387028396,19.132237993385687,65.89052368559086
-30.19574732997888,70.0144159986883,-14.715304923036008,67.80982596468888,178.8218920089058,19.132366653610404,65.89295048162494
-30.16421056438681,70.01823991801264,-14.93994239592262,67.81431060981178,178.7075806086365,19.13249530438836,65.89538286063016
-30.11516374927765,70.02205015631235,-15.171490856055303,67.81880296101893,178.59323960583788,19.13262394583373,65.89782082782675
-30.041106788702805,70.02584664879458,-15.409825324388883,67.82330296736309,178.47887861563447,19.13275257806071,65.90026438843488
-29.952039586489956,70.02962933065608,-15.654815327715198,67.8278105778739,178.36450693788487,19.13288120118351,65.90271354767476
-29.855462046243836,70.03339813708325,-15.906325172273744,67.83232574155794,178.25013357054092,19.13300981531632,65.90516831076658
-29.76137407134709,70.03715300325254,-16.164214224336778,67.83684840739848,178.1357672230157,19.13313842057336,65.90762868293058
-29.669775564961125,70.04089386433067,-16.428337197419808,67.84137852435542,178.02141632955886,19.13326701706884,65.9100946693869
-29.58066643002692,70.04462065547482,-16.69854444669147,67.84591604136517,177.9070890626377,19.133395604916988,65.91256627535577
-29.49404656926588,70.04833331183295,-16.974682270364735,67.85046090734049,177.7927933463231,19.13352418423204,65.91504350605739
-29.407415885180733,70.05203176854401,-17.25659321637269,67.8550130711704,177.67853686230077,19.13365275512822,65.91752636671194
-29.320774280056337,70.05571596073827,-17.544116391838607,67.85957248172015,177.56432704112868,19.13378131771978,65.92001486253966
-29.23412165596057,70.05938582353747,-17.837087772741892,67.86413908783088,177.45017106087437,19.133909872120963,65.9225089987607
-29.14995791474524,70.0630412920551,-18.135340511245783,67.86871283831974,177.3360758678865,19.134038418446025,65.92500878059529
-29.07828295804688,70.06668230139677,-18.43870523821717,67.87329368197966,177.22204818281017,19.134166956809224,65.92751421326363
-29.019096687287718,70.07030878666028,-18.747010358705168,67.87788156757924,177.10809447708857,19.13429548732483,65.93002530198589
-28.972399003676514,70.07392068293606,-19.06008233889553,67.88247644386266,176.99422095684088,19.13442401010712,65.9325420519823
-28.935689808209503,70.07751792530735,-19.37774598397924,67.88707825954955,176.8804335688719,19.13455252527036,65.93506446847304
-28.913969001671248,70.08110044885042,-19.699824706607878,67.89168696333493,176.76673801405627,19.13468103292885,65.93759255667831
-28.904736484635592,70.08466818863495,-20.026140785670247,67.896302503889,176.65313976071937,19.134809533196872,65.94012632181833
-28.912992157466547,70.08822107972416,-20.35651561621199,67.90092482985712,176.53964405801213,19.13493802618873,65.94266576911328
-28.936235920319227,70.09175905717518,-20.69076995291877,67.90555388985965,176.4262559492806,19.13506651201872,65.94521090378336
-28.97696767314077,70.09528205603928,-21.028724150492785,67.91018963249186,176.31298028542815,19.135194990801164,65.94776173104877
-29.03768731567128,70.09879001136215,-21.37019840412834,67.91483200632386,176.1998217382698,19.13532346265037,65.95031825612972
-29.110894747444743,70.10228285818414,-21.71501299179328,67.91948095990041,176.08678480649988,19.13545192768065,65.95288048424639
-29.189089867790024,70.1057605315406,-22.06298851766328,67.92413644174086,175.97387379951613,19.135580386006357,65.95544842061898
-29.262272575831737,70.10922296646204,-22.41394615489465,67.92879840033905,175.86109280647827,19.13570883774181,65.95802207046772
-29.32544277049127,70.11267009797452,-22.767707885957787,67.9334667841632,175.74844567273527,19.135837283001344,65.96060143901276
-29.378600350487723,70.11610186109984,-23.124096737934217,67.93814154165582,175.63593598362095,19.13596572189932,65.96318653147435
-29.41924521433887,70.11951819085589,-23.482937009531256,67.94282262123355,175.5235670629965,19.136094154550083,65.96577735307264
-29.444877260362134,70.12291902225687,-23.84405448814884,67.9475099712871,175.41134199391684,19.136222581068,65.96837390902787
-29.455496386675573,70.12630429031358,-24.20727665691181,67.95220354018119,175.29926362453045,19.136351001567427,65.97097620456022
-29.453602491198872,70.12967393003375,-24.57243289093197,67.95690327625435,175.18733454445612,19.13647941616274,65.97358424488988
-29.436695471654303,70.13302787642219,-24.93935464141322,67.96160912781892,175.07555706852685,19.13660782496832,65.97619803523709
-29.39977522556776,70.13636606448128,-25.307875607103583,67.96632104316082,174.96393324265642,19.136736228098545,65.97881758082198
-29.34034165026973,70.13968842921105,-25.6778318931441,67.97103897053967,174.85246485707316,19.136864625667805,65.98144288686481
-29.25839464289632,70.14299490560957,-26.04906215688116,67.9757628581884,174.7411534595414,19.136993017790505,65.98407395858575
-29.15893410039025,70.14628542867324,-26.421407740409265,67.98049265431342,174.6300003611929,19.137121404581038,65.98671080120502
-29.03695991950192,70.14955993339701,-26.794712791008717,67.98522830709439,174.51900662758936,19.13724978615382,65.98935341994279
-28.894971996790343,70.15281835477478,-27.16882437169503,67.98996976468408,174.4081730697725,19.137378162623257,65.99200182001927
-28.73297022862428,70.15606062779956,-27.5435925639464,67.99471697520842,174.29750024267952,19.13750653410377,65.99465600665467
-28.550954511183203,70.15928668746385,-27.91887056400681,67.9994698867663,174.1869884361679,19.13763490070981,65.9973159850692
-28.34892474045836,70.16249646875991,-28.294514773320177,68.00422844742948,174.0766376660278,19.13776326255577,65.99998176048301
-28.12438081225381,70.16568990668002,-28.670384882634604,68.00899260524255,173.9664476797381,19.137891619756125,66.00265333811635
-27.879822622187515,70.16886693621684,-29.0463439488122,68.01376230822277,173.85641796958805,19.1380199724253,66.00533072318937
-27.62025006569234,70.17202749236364,-29.42225846390408,68.01853750436004,173.74654778578605,19.13814832067776,66.00801392092232
-27.35066303801714,70.17517151011465,-29.797998416914943,68.0233181416168,173.6368361495557,19.13827666462795,66.01070293653538
-27.07606143422785,70.17829892446532,-30.173437348859533,68.02810416792788,173.52728186621863,19.13840500439034,66.01339777524875
-26.796445149208523,70.18140967041263,-30.548452401547124,68.0328955312005,173.41788353088575,19.1385333400794,66.01609844228261
-26.516814077662424,70.18450368295542,-30.922924360703885,68.03769217931408,173.3086395120014,19.13866167180961,66.01880494285719
-26.242168114113127,70.1875808970946,-31.296737693872647,68.04249406012029,173.19954792749678,19.138789999695444,66.02151728219265
-25.972507152905585,70.19064124783363,-31.669780582501037,68.0473011214428,173.09060665044302,19.1389183238514,66.02423546550921
-25.700331088207225,70.19368467017857,-32.04194494642798,68.05211331107736,172.9818133294485,19.139046644391968,66.02695949802708
-25.42563981400906,70.19671109913867,-32.413126458806246,68.05693057679154,172.87316538690976,19.13917496143165,66.02968938496646
-25.145933224126782,70.19972046972643,-32.78322455103947,68.0617528663248,172.7646600098728,19.139303275084945,66.03242513154753
-24.863711212201903,70.20271271695806,-33.152142409195285,68.06658012738832,172.65629415563885,19.139431585466383,66.03516674299048
-24.57897367170282,70.20568777585372,-33.51978696386599,68.07141230766494,172.54806456473693,19.13955989269047,66.03791422451555
-24.289220495925967,70.20864558143789,-33.88606887475597,68.0762493548091,172.4399677738855,19.139688196871735,66.0406675813429
-23.99945157799695,70.21158606873956,-34.25090250972461,68.08109121644668,172.3320001289428,19.13981649812472,66.04342681869275
-23.712166810871658,70.21450917279276,-34.6142059161189,68.08593784017505,172.22415779784654,19.13994479656394,66.0461919417853
-23.4323660873374,70.21741482863658,-34.975900781536154,68.09078917356285,172.1164367835426,19.14007309230396,66.04896295584071
-23.16504930001405,70.22030297131575,-35.33591238183541,68.09564516415,172.00883293690325,19.14020138545932,66.05173986607925
-22.91021634135524,70.22317353588082,-35.69416951489529,68.10050575944763,171.90134196225668,19.140329676144574,66.05452267772105
-22.6728671036494,70.2260264573885,-36.05060441895348,68.1053709069379,171.7939594007727,19.140457964474297,66.05731139598636
-22.453001479021037,70.22886167090199,-36.40515267521466,68.11024055407408,171.68668059908308,19.140586250563047,66.06010602609535
-22.24311935943181,70.23167911149127,-36.75775309594986,68.1151146482803,171.57950069265004,19.140714534525404,66.06290657326824
-22.038220636681757,70.2344787142335,-37.10834760015937,68.1199931369516,171.4724146112616,19.140842816475946,66.06571304272518
-21.83330520241041,70.23726041421324,-37.456881078347806,68.12487596745386,171.3654170918983,19.14097109652926,66.06852543968641
-21.62837294809804,70.2400241465228,-37.80330124794762,68.1297630871236,171.25850269159372,19.14109937479994,66.07134376937215
-21.41842376506676,70.24276984626265,-38.14755850245545,68.13465444326808,171.15166580028898,19.14122765140258,66.07416803700255
-21.20095754448177,70.24549744854164,-38.48960575801291,68.13954998316504,171.04490065368174,19.141355926451794,66.07699824779785
-20.975974177352533,70.24820688847733,-38.82939829942932,68.14444965406283,170.93820134606986,19.14148420006219,66.07983440697821
-20.74847355453396,70.25089810119646,-39.166893625393,68.14935340318014,170.83156184319017,19.14161247234839,66.08267651976388
-20.518455566727624,70.25357102183501,-39.502051291565806,68.15426117770612,170.7249759950529,19.141740743425007,66.08552459137499
-20.288420104482967,70.25622558553886,-39.83483275023222,68.15917292480015,170.6184375487717,19.141869013406687,66.08837862703182
-20.05836705819849,70.25886172746384,-40.16520118583735,68.16408859159185,170.5119401613905,19.14199728240805,66.09123863195448
-19.830796318122992,70.26147938277622,-40.49312134658202,68.16900812518105,170.40547740532864,19.14212555054375,66.09410461136324
-19.608207774356792,70.26407848665298,-40.81855937239209,68.1739314726376,170.29904275906793,19.142253817928427,66.09697657047826
-19.388101316852936,70.26665897428217,-41.14148261955549,68.17885858100148,170.19262959783774,19.142382084676743,66.09985451451976
-19.170476835418427,70.26922078086326,-41.46185948315316,68.18378939728252,170.08623119167763,19.14251035090336,66.10273844870792
-18.94783421971548,70.2717638416074,-41.779659218898416,68.18872386846054,169.97984069612232,19.14263861672293,66.10562837826298
-18.722673359262743,70.27428809173787,-42.09485176460199,68.19366194148516,169.87345114288732,19.142766882250143,66.1085243084051
-18.497494143436555,70.27679346649035,-42.40740755991052,68.19860356327575,169.7670554453136,19.14289514759968,66.11142624435448
-18.272296461472173,70.27927990111324,-42.71729736362463,68.2035486807215,169.66064641119243,19.14302341288621,66.11433419133132
-18.049580202465044,70.28174733086807,-43.02449206958989,68.2084972406811,169.55421675559433,19.143151678224434,66.11724815455584
-17.834345255372064,70.28419569102981,-43.32896252281115,68.21344918998294,169.4477591137015,19.14327994372905,66.12016813924822
-17.636591509012824,70.28662491688716,-43.63067933775467,68.21840447542493,169.3412660462672,19.14340820951476,66.12309415062866
-17.458818852070888,70.28903494374302,-43.929612721455655,68.22336304377443,169.23473002294656,19.14353647569628,66.12602619391738
-17.303527173095063,70.2914257069147,-44.22573230384389,68.22832484176818,169.1281433982556,19.14366474238831,66.12896427433454
-17.17571636050068,70.29379714173433,-44.51900697629282,68.23328981611239,169.02149842442873,19.143793009705597,66.13190839710037
-17.07788630257086,70.29614918354928,-44.80940473850338,68.23825791348246,168.91478729379645,19.143921277762846,66.13485856743506
-17.0100368874578,70.29848176772235,-45.0968925546516,68.2432290805231,168.80800215165988,19.144049546674804,66.1378147905588
-16.974668003184085,70.30079482963225,-45.38143622123194,68.24820326384818,168.70113507228444,19.14417781655621,66.14077707169182
-16.969279537643956,70.30308830467389,-45.66300024967094,68.25318041004078,168.5941780422826,19.14430608752181,66.14374541605429
-16.998871378604616,70.30536212825878,-45.94154776605546,68.25816046565296,168.487122966142,19.14443435968636,66.14671982886641
-17.065943413707533,70.30761623581532,-46.21704042873064,68.2631433772059,168.37996167914474,19.14456263316461,66.14970031534838
-17.165495530469748,70.30985056278918,-46.48943836344556,68.26812909118972,168.27268596030012,19.14469090807134,66.15268688072041
-17.292527616285184,70.31206504464375,-46.758700115676014,68.2731175540635,168.16528754529153,19.14481918452131,66.15567953020269
-17.44453955842596,70.31425961686031,-47.02478261953343,68.27810871225519,168.05775813943802,19.1449474626293,66.15867826901543
-17.611531244043704,70.31643421493854,-47.28764118176366,68.28310251216158,167.95008943067148,19.14507574251009,66.16168310237882
-17.791002560170895,70.31858877439684,-47.54722947860623,68.28809890014821,167.842273095152,19.145204024278488,66.16469403551304
-17.975453393722177,70.32072323077267,-47.80349956306736,68.29309782254944,167.73430078076623,19.14533230804927,66.16771107363833
-18.15738363149568,70.3228375196229,-48.05640188028664,68.29809922566822,167.62616407588814,19.145460593937248,66.17073422197485
-18.334293160174383,70.32493157652421,-48.305885289491485,68.30310305577628,167.51785449291594,19.145588882057226,66.17376348574284
-18.501181866327435,70.32700533707347,-48.55189709270427,68.30810925911382,167.40936347396442,19.145717172524016,66.17679887016244
-18.6605496364115,70.32905873688804,-48.79438307186639,68.31311778188967,167.3006824039575,19.14584546545245,66.17984038045391
-18.80989635677211,70.33109171160619,-49.03328753599892,68.31812857028117,167.19180262374397,19.145973760957343,66.18288802183743
-18.94922191364502,70.33310419688742,-49.26855337860229,68.32314157043413,167.08271544323702,19.14610205915353,66.18594179953318
-19.073526193157555,70.33509612841287,-49.50012214459348,68.32815672846279,166.97341215457809,19.14623036015586,66.18900171876136
-19.18280908132997,70.33706744188568,-49.72793410688797,68.33317399044977,166.86388404532605,19.146358664079173,66.19206778474219
-19.27707046407684,70.33901807303135,-49.951928354056,68.33819330244609,166.7541224116723,19.14648697103832,66.19514000269587
-19.35881022720838,70.34094795759812,-50.17204289043229,68.343214610471,166.6441185716825,19.146615281148154,66.19821837784257
-19.425528256431864,70.34285703135734,-50.3882147484646,68.34823786051213,166.53386387118744,19.14674359452354,66.20130291540251
-19.482224437352976,70.34474523010381,-50.600380111491575,68.35326299852525,166.42334966756857,19.14687191127936,66.2043936205959
-19.52389865547719,70.34661248965624,-50.80847444508911,68.3582899704344,166.3125672988171,19.14700023153047,66.20749049864291
-19.548050796211164,70.34845874585754,-51.0124326364438,68.36331872213178,166.2015080673803,19.14712855539177,66.21059355476376
-19.55718074486412,70.35028393457524,-51.21218914201746,68.36834919947768,166.09016324617463,19.147256882978137,66.21370279417864
-19.55128838664924,70.35208799170185,-51.40767814285845,68.37338134830053,165.97852409201056,19.14738521440448,66.21681822210776
-19.535373606685045,70.35387085315524,-51.5988337053215,68.37841511439679,165.86658185905182,19.14751354978568,66.2199398437713
-19.516936289996828,70.35563245487903,-51.785589944222,68.383450443531,165.75432781230967,19.14764188923666,66.22306766438949
-19.503476321518026,70.35737273284298,-51.96788118608684,68.38848728143567,165.64175323379504,19.14777023287232,66.22620168918247
-19.494993586091617,70.35909162304335,-52.145642131658576,68.3935255738113,165.52884940657358,19.147898580807595,66.22934192337051
-19.496487968471577,70.36078906150325,-52.31880801761864,68.39856526632632,165.41560758410282,19.1480269331574,66.23248837217376
-19.502959353324243,70.36246498427316,-52.48731477659083,68.40360630461704,165.30201897436518,19.148155290036662,66.23564104081244
-19.51940762522976,70.36411932743113,-52.65109919289685,68.40864863428773,165.18807474617603,19.14828365156033,66.23879993450674
-19.540832668683493,70.36575202708329,-52.810099050804105,68.41369220091048,165.0737660429122,19.148412017843345,66.24196505847688
-19.56223436809744,70.3673630193642,-52.96425327281854,68.41873695002518,164.95908398890538,19.14854038900065,66.24513641794303
-19.58361260780169,70.36895224043725,-53.11350204793079,68.4237828271396,164.84401968112297,19.148668765147217,66.2483140181254
-19.609967272045807,70.37051962649505,-53.25778695225099,68.42882977772923,164.72856418089458,19.148797146397992,66.25149786424419
-19.63629824500032,70.37206511375979,-53.39705106527733,68.43387774723735,164.61270851306242,19.148925532867946,66.2546879615196
-19.65510541075811,70.37358863848365,-53.53123908430882,68.43892668107497,164.4964436578012,19.14905392467206,66.25788431517184
-19.661388653335887,70.37509013694923,-53.66029743860345,68.44397652462082,164.37976054248657,19.149182321925316,66.26108693042107
-19.65514785667561,70.37656954546985,-53.78417440379976,68.44902722322131,164.26265004836955,19.14931072474269,66.26429581248755
-19.63388290464597,70.37802680039003,-53.90282021569357,68.45407872219053,164.14510302467968,19.149439133239188,66.26751096659142
-19.597593681043783,70.37946183808589,-54.01618718223427,68.45913096681024,164.02711029540177,19.1495675475298,66.27073239795291
-19.54878006959551,70.38087459496546,-54.12422979409127,68.46418390232982,163.90866265134903,19.14969596772954,66.2739601117922
-19.489941953958677,70.38226500746917,-54.22690483494127,68.46923747396626,163.78975084229018,19.149824393953416,66.27719411332953
-19.43107921772333,70.38363301207019,-54.32417149188374,68.47429162690419,163.67036557650923,19.14995282631644,66.28043440778505
-19.37969174441353,70.38497854527488,-54.4159914665046,68.4793463062958,163.5504975130439,19.150081264933647,66.28368100037898
-19.350779417488813,70.38630154362308,-54.50232908824668,68.48440145726083,163.43013725398072,19.150209709920052,66.28693389633152
-19.354342120345624,70.38760194368867,-54.58315143082759,68.4894570248866,163.30927535156565,19.150338161390717,66.29019310086287
-19.40537973631884,70.38887968207986,-54.65842842929869,68.49451295422801,163.18790232275165,19.15046661946065,66.29345861919322
-19.513892148683222,70.39013469543963,-54.72813299373605,68.49956919030744,163.06600866380688,19.150595084244934,66.2967304565428
-19.694879240654902,70.39136692044612,-54.792241117037904,68.5046256781148,162.94358485760614,19.150723555858605,66.30000861813174
-19.950840895392872,70.39257629381306,-54.85073197664542,68.50968236260753,162.82062135885053,19.15085203441673,66.30329310918033
-20.29177699600044,70.39376275229016,-54.9035880316604,68.51473918871058,162.69710856459463,19.150980520034373,66.30658393490867
-20.72518742552676,70.3949262326635,-54.95079511763236,68.51979610131633,162.57303679959526,19.151109012826605,66.30988110053705
-21.251072066968312,70.39606667175595,-54.992342540370686,68.5248530452847,162.44839632386095,19.151237512908512,66.31318461128565
-21.86443080327037,70.39718400642765,-55.02822316767757,68.52990996544311,162.3231773476473,19.151366020395177,66.3164944723746
-22.56276351732854,70.39827817357624,-55.058433516295295,68.53496680658638,162.1973700465211,19.15149453540169,66.31981068902417
-23.34107009199024,70.39934911013749,-55.08297383198762,68.54002351347684,162.07096456911583,19.15162305804316,66.32313326645455
-24.184350410056204,70.40039675308557,-55.10184816233216,68.54508003084428,161.9439510302018,19.151751588434674,66.3264622098859
-25.067604354281997,70.40142103943349,-55.11506442311391,68.55013630338593,161.81631951120596,19.15188012669136,66.32979752453846
-25.960831807379503,70.4024219062335,-55.1226344593251,68.5551922757665,161.68806008293865,19.15200867292832,66.33313921563241
-26.819032652018493,70.40339929057761,-55.124574100176304,68.56024789261815,161.559162813638,19.15213722726069,66.33648728838796
-27.58970677082806,70.40435312959782,-55.12090320575352,68.56530309854047,161.4296177475769,19.152265789803597,66.3398417480253
-28.2178540463982,70.40528336046673,-55.11164570324348,68.57035783810053,161.29941489112417,19.15239436067216,66.34320259976461
-28.6409743612813,70.40618992039781,-55.09682961265224,68.57541205583286,161.16854421363956,19.15252293998154,66.34656984882612
-28.784067597993698,70.40707274664591,-55.07648706360192,68.5804656962394,161.0369956336917,19.15265152784688,66.34994350043004
-28.56713363901715,70.4079317765076,-55.05065430490844,68.5855187037896,160.90475899797838,19.152780124383327,66.35332355979651
-27.90767236680042,70.4087669473217,-55.019371707730976,68.59057102292039,160.77182408984092,19.152908729706045,66.3567100321458
-26.72318366376076,70.40957819646957,-54.982683762514576,68.59562259803609,160.6381806526178,19.153037343930208,66.36010292269806
-24.936167412285485,70.41036546137563,-54.94063907040562,68.60067337350854,160.50381839094774,19.153165967170978,66.36350223667351
-22.471623494733485,70.41112867950778,-54.893290330449446,68.60572329367709,160.36872696478014,19.153294599543543,66.36690797929232
-19.25705179343678,70.4118677883777,-54.84069432296674,68.61077230284852,160.23289599822752,19.15342324116308,66.37032015577473
-15.219952190702031,70.41258272554151,-54.78291188705045,68.61582034529715,160.09631509588343,19.15355189214478,66.37373877134094
-10.295324568812129,70.41327342859992,-54.72000788870152,68.62086736526479,159.9589738592286,19.153680552603845,66.3771638312111
-4.428168810027702,70.41393983519887,-54.65205117744162,68.62591330696075,159.82086190312566,19.15380922265548,66.38059534060547
2.4290152034113173,70.41458188302983,-54.57911453142147,68.63095811456192,159.6819688724043,19.15393790241489,66.38403330474421
10.313727589284143,70.41519950983032,-54.5012745913392,68.63600173221266,159.54228445115874,19.15406659199729,66.38747772884749
19.253468465387584,70.41579265338426,-54.41861178275226,68.64104410402491,159.40179835000305,19.154195291517905,66.39092861813558
29.25073794953449,70.41636125152246,-54.331210227349374,68.6460851740782,159.26050027866378,19.154324001091968,66.39438597782863
40.29053615955219,70.41690524212301,-54.23915764593188,68.65112488641961,159.1183799408015,19.15445272083471,66.39784981314686
52.34536321328093,70.41742456311171,-54.14254525632106,68.65616318506383,158.9754270658187,19.154581450861368,66.40132012931046
65.35271922857234,70.41791915246256,-54.04146766747625,68.66120001399315,158.83163144076457,19.15471019128719,66.40479693153965
79.2326043232878,70.41838894819813,-53.93602276934684,68.66623531715749,158.6869829128252,19.15483894222744,66.40828022505458
93.89001861529692,70.41883388839,-53.82631161861954,68.67126903847446,158.5414713845342,19.15496770379736,66.41177001507549
109.21746222247604,70.41925391115925,-53.71243832218965,68.67630112182927,158.39508682383925,19.155096476112227,66.41526630682257
125.0824352627065,70.41964895467682,-53.59450992065182,68.68133151107487,158.24781928164725,19.15522525928731,66.41876910551603
141.3374378538732,70.42001895716399,-53.47263627354485,68.6863601500319,158.09965890209293,19.15535405343789,66.42227841637606
157.81747011386295,70.42036385689283,-53.34692994735141,68.69138698248874,157.95059591077614,19.15548285867925,66.42579424462284
174.34003216056294,70.42068359218659,-53.21750610669186,68.6964119522015,157.80062059572506,19.155611675126675,66.42931659547658
190.7126241118592,70.4209781014202,-53.08448240859071,68.70143500289412,157.64972331797662,19.15574050289547,66.43284547415749
206.73524608563477,70.42124732302065,-52.94797889862056,68.70645607825826,157.49789453701965,19.15586934210093,66.43638088588577
222.1978981997685,70.42149119546747,-52.80811790682888,68.7114751219535,157.34512481421064,19.155998192858373,66.43992283588159
236.8905805721332,70.42170965729315,-52.66502394165551,68.71649207760723,157.19140480154175,19.15612705528311,66.4434713293652
250.61079332059413,70.4219026470836,-52.51882358121114,68.72150688881473,157.03672523051824,19.156255929490463,66.44702637155675
263.1560365630075,70.42207010347856,-52.369645362279726,68.7265194991392,156.88107691590238,19.15638481559576,66.45058796767646
274.3338104172185,70.42221196517212,-52.21761966737425,68.73152985211175,156.7244507890812,19.15651371371433,66.45415612294451
283.9616150010603,70.42232817091308,-52.06287860928571,68.73653789123152,156.5668379389241,19.156642623961528,66.45773084258113
291.864450432352,70.42241865950538,-51.90555591184955,68.7415435599656,156.40822963061885,19.156771546452685,66.46131213180651
297.8973168288972,70.42248336980869,-51.74578678545403,68.74654680174916,156.24861729510832,19.15690048130316,66.46489999584085
301.93521430848244,70.42252224073869,-51.58370779596154,68.75154755998541,156.08799250388532,19.157029428628316,66.46849443990433
303.8781429888754,70.4225352112676,-51.41945672654754,68.75654577804568,155.926346951281,19.157158388543507,66.47209546921717
303.67110298782364,70.42252764331731,-51.25317243348327,68.76154139926943,155.76367244424844,19.15728736116412,66.47570308899955
301.29159442305263,70.42250495658739,-51.08499469772472,68.76653436696432,155.59996089964227,19.157416346605523,66.47931730447168
296.75211741226445,70.42246717677382,-50.915064073465466,68.77152462440618,155.4352043489958,19.157545344983102,66.48293812085376
290.09017207313593,70.42241432959199,-50.74352173410555,68.77651211483915,155.26939493604024,19.157674356412244,66.486565543366
281.3732585233172,70.42234644077638,-50.57050931675601,68.7814967814756,155.10252491434522,19.15780338100836,66.49019957722858
270.70387688043,70.42226353608069,-50.396168767065255,68.78647856749629,154.934586659837,19.157932418886837,66.4938402276617
258.2095272620663,70.4221656412775,-50.22064218527933,68.79145741605028,154.76557269081798,19.15806147016308,66.49748749988557
244.05520978578627,70.42205278215836,-50.04407167306036,68.79643327025512,154.595475688109,19.15819053495252,66.50114139912037
228.43342456911705,70.42192498453353,-49.86659918057198,68.80140607319677,154.4242885153154,19.158319613370573,66.50480193058632
211.5616717295508,70.42178227423197,-49.68836635469813,68.80637576792971,154.25200423921706,19.158448705532663,66.50846909950363
193.6674513845436,70.42162467710118,-49.50951439010521,68.81134229747697,154.0786161502828,19.15857781155423,66.51214291109245
174.98326365151308,70.42145221900708,-49.33018388398904,68.81630560483015,153.9041177833094,19.158706931550714,66.51582337057303
155.74410864783752,70.42126492583398,-49.15051469379457,68.82126563294949,153.72850293080757,19.15883606563756,66.51951048316553
136.1924864908538,70.42106282348436,-48.970645796330594,68.82622232476395,153.55176564175764,19.15896521393022,66.5232042540902
116.56589729785595,70.42084593787885,-48.79071514669515,68.83117562317119,153.37390022049112,19.15909437654415,66.52690468856719
97.09934118609348,70.42061429495607,-48.61085953628083,68.83612547103766,153.19490123307736,19.159223553594817,66.53061179181668
78.02281827276971,70.42036792067253,-48.43121445066989,68.84107181119867,153.01476350645953,19.159352745197697,66.53432556905894
59.551328675040246,70.42010684100258,-48.25191392925661,68.84601458645838,152.833482127719,19.15948195146827,66.53804602551412
41.882372510011294,70.41983108193821,-48.0730904284339,68.85095373958994,152.65105245084612,19.15961117252201,66.54177316640244
25.183449894738025,70.41954066948897,-47.89487469000945,68.85588921333543,152.46747008888428,19.159740408474413,66.54550699694408
9.577060946222977,70.41923562968194,-47.71739561565956,68.86082095040602,152.28273089144807,19.159869659440982,66.54924752235925
-4.84679421858559,70.41891598856147,-47.540780145830496,68.86574889348199,152.09683093712803,19.159998925537213,66.55299474786817
-18.035615482795333,70.41858177218927,-47.36515313995887,68.87067298521274,151.90976654816126,19.160128206878618,66.556748678691
-29.956902729571446,70.4182330066441,-47.190637256431565,68.87559316821694,151.7215343052336,19.160257503580706,66.56050932004794
-40.598155842138304,70.4178697180218,-47.01735283294295,68.88050938508248,151.5321310402797,19.160386815759008,66.56427667715923
-49.96937470378107,70.41749193243514,-46.84541776808953,68.88542157836663,151.3415538146595,19.16051614352905,66.56805075524504
-58.09555919784737,70.41709967601369,-46.67494740454036,68.89032969059605,151.1497999122241,19.160645487006363,66.57183155952556
-65.0267092077489,70.41669297490375,-46.50605441481891,68.89523366426683,150.95686685464918,19.16077484630649,66.57561909522103
-70.83032461696303,70.41627185526822,-46.33884869143122,68.9001334418446,150.7627524169023,19.16090422154498,66.5794133675516
-75.59140530903457,70.41583634328653,-46.17343724223064,68.90502896576459,150.56745462070975,19.161033612837382,66.58321438173749
-79.39495116757723,70.41538646515444,-46.00992409038152,68.90992017843163,150.37097171340184,19.161163020299263,66.5870221429989
-82.32846207627537,70.41492224708409,-45.8484101774428,68.91480702222032,150.17330215427071,19.16129244404619,66.59083665655602
-84.48943791888567,70.41444371530372,-45.6889932681096,68.919689439475,149.9744446010638,19.16142188419372,66.59465792762909
-85.97537857923865,70.41395089605768,-45.5317678560282,68.92456737250987,149.77439788923482,19.161551340857443,66.59848596143824
-86.88128394124038,70.41344381560629,-45.37682507166298,68.92944076360904,149.5731610260876,19.161680814152945,66.60232076320372
-87.3021538888742,70.41292250022576,-45.22425259407261,68.93430955502662,149.37073320719037,19.16181030419581,66.60616233814571
-87.3279883062022,70.41238697620798,-45.07413456778883,68.93917368898676,149.16711384030464,19.161939811101643,66.61001069148442
-87.05128707736695,70.41183726986058,-44.92655152532739,68.94403310768374,148.9623025620723,19.162069334986047,66.61386582844004
-86.55205008659318,70.41127340750668,-44.7815803165675,68.94888775328202,148.75629923270418,19.16219887596463,66.61772775423276
-85.90277721818937,70.41069541548488,-44.63929404694297,68.9537375679164,148.54910391604892,19.162328434153007,66.62159647408279
-85.1534683565494,70.41010332014909,-44.499762025552265,68.95858249369195,148.34071687455386,19.162458009666803,66.62547199321034
-84.3416233861542,70.40949714786846,-44.3630497227733,68.9634224726842,148.13113857911856,19.16258760262165,66.62935431683559
-83.4847421915734,70.40887692502729,-44.2292187361342,68.96825744693918,147.9203697043285,19.162717213133178,66.63324345017875
-82.59532465746699,70.40824267802485,-44.09832676321447,68.97308735847345,147.7084111090693,19.16284684131703,66.63713939846001
-81.68337066858693,70.40759443327538,-43.97042758106187,68.9779121492743,147.4952638320333,19.16297648728885,66.64104216689958
-80.75888010977884,70.40693221720792,-43.8455710324933,68.9827317612997,147.28092910211896,19.163106151164307,66.64495176071765
-79.83185286598359,70.4062560562662,-43.72380301984621,68.98754613647844,147.06540833421053,19.16323583305905,66.64886818513442
-78.90478882223903,70.40556597690856,-43.60516550660265,68.99235521671022,146.848703110338,19.163365533088747,66.6527914453701
-77.97518786368155,70.40486200560788,-43.48969652750651,68.99715894386573,146.63081517572954,19.163495251369078,66.65672154664487
-77.04054987554778,70.4041441688514,-43.37743020747887,69.00195725978666,146.4117464497565,19.16362498801571,66.66065849417893
-76.10087474317625,70.40341249314068,-43.26839678812196,69.00675010628595,146.1914990222582,19.163754743144334,66.66460229319252
-75.15616235200899,70.40266700499141,-43.16262265926049,69.01153742514765,145.97007513524682,19.163884516870656,66.66855294890578
-74.19891258759321,70.40190773093346,-43.06013039351443,69.01631915812723,145.74747717950402,19.16401430931036,66.67251046653894
-73.22412533558293,70.40113469751061,-42.960938783644224,69.02109524695149,145.52370771344758,19.16414412057916,66.67647485131221
-72.23430048174069,70.40034793128056,-42.86506288312868,69.0258656333188,145.298769482133,19.16427395079275,66.68044610844575
-71.2319379119391,70.3995474588148,-42.77251404995586,69.03063025889904,145.07266541425557,19.16440380006687,66.6844242431598
-70.22203751216256,70.39873330669843,-42.68329999364178,69.03538906533379,144.84539860453063,19.164533668517237,66.68840926067453
-69.19959916850888,70.39790550153023,-42.59742482603976,69.04014199423642,144.61697231096394,19.164663556259573,66.69240116621016
-68.16962276719099,70.39706406992235,-42.51488911585205,69.04488898719212,144.38738996701184,19.164793463409623,66.69639996498688
-67.12960819453845,70.39620903850036,-42.43568994524799,69.04962998575807,144.15665517911856,19.16492339008313,66.70040566222487
-66.07955533699928,70.3953404339031,-42.35982096702826,69.05436493146348,143.92477170963076,19.165053336395843,66.70441826314438
-65.02196408114145,70.39445828278257,-42.28727246235398,69.05909376580966,143.69174346722255,19.16518330246352,66.70843777296555
-63.96433431365461,70.39356261180382,-42.21803139995232,69.06381643027022,143.4575744974532,19.165313288401915,66.71246419690861
-62.91416592135175,70.39265344764486,-42.15208149774704,69.06853286629111,143.2222689660794,19.165443294326806,66.71649754019377
-61.87395879117082,70.39173081699661,-42.08940328806819,69.07324301529064,142.9858311498776,19.165573320353964,66.72053780804119
-60.84371281017636,70.39079474656269,-42.02997418745794,69.07794681865973,142.74826542759854,19.16570336659917,66.72458500567112
-59.82092786556119,70.38984526305941,-41.97376857126558,69.08264421776191,142.50957626367534,19.165833433178214,66.72863913830372
-58.80560384464803,70.38888239321564,-41.92075785257177,69.08733515393344,142.26976820681938,19.16596352020689,66.73270021115918
-57.80274063489116,70.38790616377271,-41.870910564843086,69.09201956848342,142.028845910881,19.166093627801004,66.73676822945774
-56.81483812387806,70.38691660148426,-41.824192447750754,69.0966974026939,141.78681415584035,19.166223756076352,66.74084319841957
-55.84189619933109,70.38591373311628,-41.78056653561991,69.10136859782003,141.5436778467935,19.166353905148757,66.74492512326488
-54.88391474910907,70.38489758544682,-41.73999324800913,69.10603309509,141.2994419909327,19.166484075134026,66.74901400921385
-53.94339366120897,70.38386818526605,-41.70243048195248,69.11069083570536,141.05411166727748,19.166614266148,66.75310986148672
-53.02283282376759,70.3828255593761,-41.66783370542986,69.11534176084099,140.80769200391214,19.1667444783065,66.75721268530364
-52.11723212506313,70.3817697345909,-41.63615605166403,69.11998581164528,140.56018817748577,19.166874711725377,66.76132248588485
-51.219091453516896,70.3807007377362,-41.60734841404685,69.12462292924016,140.31160543497396,19.16700496652047,66.76543926845052
-50.325910697694894,70.37961859564936,-41.58135954221535,69.1292530547213,140.06194911556753,19.167135242807632,66.76956303822088
-49.437689746309545,70.37852333517935,-41.55813614051438,69.13387612915818,139.81122464317482,19.167265540702715,66.77369380041608
-48.55192848822123,70.37741498318655,-41.53762296942763,69.1384920935942,139.5594374895373,19.16739586032159,66.77783156025637
-47.66862681244004,70.37629356654276,-41.51976294904534,69.14310088904676,139.30659315222664,19.167526201780127,66.78197632296194
-46.79028460812734,70.37515911213097,-41.50449726383739,69.14770245650752,139.05269716227906,19.167656565194203,66.78612809375295
-45.91190176459744,70.3740116468454,-41.49176547008503,69.15229673694229,138.79775509195383,19.16778695067971,66.79028687784964
-45.03097817131924,70.37285119759132,-41.48150560803624,69.15688367129135,138.5417725626158,19.16791735835252,66.79445268047218
-44.14251371791787,70.37167779128492,-41.47365431881903,69.16146320046948,138.2847552601184,19.168047788328543,66.79862550684079
-43.24900829417631,70.37049145485335,-41.46814696462841,69.16603526536605,138.02670893555265,19.168178240723684,66.80280536217566
-42.35296179003706,70.36929221523448,-41.464917752269095,69.1705998068452,137.7676393913612,19.168308715653847,66.806992251697
-41.45437409560374,70.36808009937684,-41.463899862386114,69.17515676574595,137.50755248232903,19.16843921323495,66.81118618062499
-40.55324510114278,70.36685513423956,-41.46502558673608,69.17970608288232,137.24645413145018,19.16856973358292,66.81538715417983
-39.649574697085,70.36561734679228,-41.46822647449896,69.18424769904341,136.98435033115743,19.16870027681367,66.81959517758176
-38.73836277402728,70.36436676401496,-41.47343348778973,69.18878155499358,136.72124712253623,19.168830843043143,66.82381025605093
-37.82210922273418,70.3631034128979,-41.48057716637237,69.19330759147257,136.4571505672787,19.1689614323873,66.82803239480755
-36.90331393413961,70.36182732044156,-41.48958780159322,69.1978257491956,136.1920667271335,19.16909204496206,66.83226159907183
-35.9844767993484,70.36053851365652,-41.50039561956359,69.20233596885352,135.92600165822944,19.1692226808834,66.83649787406397
-35.068097709637975,70.35923701956337,-41.51293097346273,69.20683819111291,135.65896140551632,19.16935334026727,66.84074122500415
-34.15917655645998,70.35792286519253,-41.52712454415861,69.21133235661627,135.39095198994409,19.16948402322964,66.84499165711259
-33.26521323144191,70.3565960775843,-41.54290754767058,69.21581840598206,135.12197941051417,19.169614729886483,66.84924917560947
-32.38620762638873,70.35525668378865,-41.5602119485237,69.22029627980494,134.8520496612025,19.16974546035378,66.85351378571501
-31.532159633284515,70.35390471086518,-41.57897067891358,69.2247659186558,134.5811687332403,19.16987621474752,66.8577854926494
-30.703069144294066,70.35254018588302,-41.599117862755286,69.229227263082,134.30934260275285,19.17000699318369,66.86206430163283
-29.896436051764525,70.3511631359207,-41.620589041988566,69.23368025360737,134.03657722588903,19.170137795778302,66.8663502178855
-29.10726024822705,70.34977358806607,-41.6433214020109,69.23812483073249,133.76287853406365,19.17026862264736,66.87064324662762
-28.33804162639837,70.34837156941627,-41.667253993810455,69.2425609349347,133.4882524219335,19.17039947390686,66.8749433930794
-27.588780079182456,70.34695710707753,-41.69232795192961,69.24698850666839,133.21270475024102,19.17053034967284,66.87925066246102
-26.86447549967212,70.34553022816512,-41.71848670929079,69.25140748636495,132.93624137090237,19.17066125006132,66.88356505999266
-26.16012778115064,70.3440909598033,-41.7456762104455,69.25581781443307,132.6588681522053,19.170792175188332,66.88788659089457
-25.47073681709338,70.34263932912515,-41.77384512345037,69.26021943125882,132.38059098198084,19.17092312516992,66.89221526038689
-24.7963025011694,70.34117536327253,-41.802945049043856,69.26461227720576,132.10141575612687,19.17105410012212,66.89655107368986
-24.136824727243088,70.33969908939598,-41.83293072546803,69.26899629261514,131.82134837461618,19.171185100160987,66.90089403602369
-23.487303389375747,70.33821053465458,-41.863760227464354,69.27337141780606,131.54039473761128,19.171316125402583,66.90524415260853
-22.847738381827227,70.33670972621591,-41.89539515764443,69.2777375930755,131.25856073430668,19.171447175962967,66.90960142866462
-22.213129599057545,70.33519669125599,-41.92780082776704,69.28209475869859,130.97585224663266,19.171578251958216,66.91396586941214
-21.58097693572847,70.33367145695902,-41.96094642678487,69.28644285492877,130.69227517519727,19.171709353504408,66.91833748007129
-20.94628028670514,70.33213405051752,-41.994805172373056,69.29078182199775,130.40783546533186,19.171840480717623,66.92271626586228
-20.30653954705768,70.33058449913206,-42.02935444370195,69.29511160011594,130.12253911110432,19.17197163371396,66.92710223200528
-19.659254612062792,70.32902283001121,-42.06457589478241,69.29943212947235,129.8363921446777,19.172102812609506,66.93149538372053
-19.004425377205376,70.32744907037153,-42.10045554859295,69.30374335023491,129.5494006405251,19.172234017520363,66.93589572622821
-18.344551738180108,70.32586324743737,-42.13698387239359,69.30804520255053,129.26157073450088,19.17236524856265,66.94030326474852
-17.66713359089306,70.32426538844082,-42.17415583465453,69.31233762654529,128.972908628254,19.17249650585249,66.94471800450165
-16.97467083146329,70.32265552062165,-42.21197094387952,69.31662056232459,128.68342057160567,19.17262778950599,66.9491399507078
-16.272163356224446,70.32103367122716,-42.250433268940895,69.32089394997335,128.39311283764647,19.172759099639293,66.9535691085872
-15.56461106172635,70.31939986751209,-42.28955143988098,69.32515772955605,128.10199170530865,19.172890436368533,66.95800548336001
-14.8520138447366,70.31775413673866,-42.329338628672176,69.32941184111706,127.81006346416962,19.17302179980985,66.96244908024644
-14.12937160224216,70.31609650617625,-42.36981251030875,69.33365622468061,127.5173344414855,19.17315319007939,66.96689990446669
-13.394184231450945,70.31442700310153,-42.41099520377088,69.3378908202511,127.2238110366973,19.17328460729332,66.97135796124097
-12.651451629793414,70.31274565479822,-42.45291319071319,69.34211556781322,126.92949974865267,19.173416051567795,66.97582325578946
-11.90367369492416,70.31105248855707,-42.49559720924289,69.34633040733205,126.63440718078527,19.173547523018986,66.98029579333237
-11.150850324723482,70.30934753167575,-42.5390821208676,69.35053527875334,126.33854003162922,19.173679021763068,66.9847755790899
-10.39548141729898,70.3076308114588,-42.58340675026615,69.35473012200356,126.04190509280195,19.173810547916226,66.98926261828225
-9.63756687098713,70.30590235521744,-42.62861369945248,69.35891487699014,125.74450924707672,19.173942101594648,66.99375691612961
-8.882106584354853,70.30416219026958,-42.67474913844827,69.36308948360161,125.44635945178804,19.17407368291453,66.9982584778522
