# OpenSignals Text File Format. Version 1
# {"98:D3:71:FD:62:5E": {"position": 0, "device": "bitalino_rev", "device name": "98:D3:71:FD:62:5E", "device connection": "BTH98:D3:71:FD:62:5E", "sampling rate": 1000, "resolution": [4, 1, 1, 1, 1, 10, 10, 10, 10], "firmware version": 1282, "comments": "", "keywords": "", "mode": 0, "sync interval": 2, "date": "2022-10-21", "time": "11:12:15.86", "channels": [1, 2, 3, 4], "sensor": ["PULSEOXI", "ECGBIT", "RESPBIT", "LUX"], "label": ["A1", "A2", "A3", "A4"], "column": ["nSeq", "I1", "I2", "O1", "O2", "A1", "A2", "A3", "A4"], "special": [{}, {}, {}, {}], "digital IO": [0, 0, 1, 1]}}
# EndOfHeader
0	0	0	0	0	485	502	479	15	
1	0	0	0	0	484	502	478	15	
2	0	0	0	0	484	502	478	15	
3	0	0	0	0	484	502	479	15	
4	0	0	0	0	484	502	479	15	
5	0	0	0	0	484	502	479	15	
6	0	0	0	0	484	502	479	14	
7	0	0	0	0	484	502	479	15	
8	0	0	0	0	485	502	479	15	
9	0	0	0	0	485	502	479	15	
10	0	0	0	0	485	502	479	15	
11	0	0	0	0	486	502	479	14	
12	0	0	0	0	485	502	479	14	
13	0	0	0	0	486	502	479	15	
14	0	0	0	0	486	502	479	14	
15	0	0	0	0	486	502	479	15	
0	0	0	0	0	486	502	479	15	
1	0	0	0	0	487	502	479	15	
2	0	0	0	0	487	502	479	15	
3	0	0	0	0	487	502	479	14	
4	0	0	0	0	487	502	480	15	
5	0	0	0	0	487	502	480	14	
6	0	0	0	0	488	502	480	15	
7	0	0	0	0	488	502	480	15	
8	0	0	0	0	488	502	480	15	
9	0	0	0	0	489	502	480	15	
10	0	0	0	0	489	502	480	15	
11	0	0	0	0	489	502	480	15	
12	0	0	0	0	490	502	480	15	
13	0	0	0	0	490	502	480	15	
14	0	0	0	0	491	502	480	15	
15	0	0	0	0	491	502	480	15	
0	0	0	0	0	492	502	480	15	
1	0	0	0	0	491	502	480	15	
2	0	0	0	0	492	502	480	14	
3	0	0	0	0	493	502	480	15	
4	0	0	0	0	493	502	480	14	
5	0	0	0	0	494	502	480	15	
6	0	0	0	0	495	502	480	15	
7	0	0	0	0	495	502	480	15	
8	0	0	0	0	495	502	480	15	
9	0	0	0	0	496	502	480	15	
10	0	0	0	0	496	502	480	15	
11	0	0	0	0	497	502	480	15	
12	0	0	0	0	497	502	480	14	
13	0	0	0	0	498	502	480	15	
14	0	0	0	0	499	502	481	15	
15	0	0	0	0	499	502	481	15	
0	0	0	0	0	499	502	480	15	
1	0	0	0	0	499	502	481	15	
2	0	0	0	0	500	502	481	15	
3	0	0	0	0	502	502	481	15	
4	0	0	0	0	502	502	481	15	
5	0	0	0	0	502	502	481	15	
6	0	0	0	0	503	502	481	15	
7	0	0	0	0	504	502	481	15	
8	0	0	0	0	504	502	481	15	
9	0	0	0	0	504	502	481	15	
10	0	0	0	0	505	502	481	15	
11	0	0	0	0	505	502	481	15	
12	0	0	0	0	505	502	481	15	
13	0	0	0	0	505	502	481	14	
14	0	0	0	0	507	502	481	15	
15	0	0	0	0	506	502	481	15	
0	0	0	0	0	507	502	481	15	
1	0	0	0	0	508	502	481	15	
2	0	0	0	0	508	501	481	15	
3	0	0	0	0	508	502	481	15	
4	0	0	0	0	508	502	481	14	
5	0	0	0	0	509	502	482	15	
6	0	0	0	0	510	502	482	15	
7	0	0	0	0	510	502	482	14	
8	0	0	0	0	509	502	481	15	
9	0	0	0	0	510	502	481	15	
10	0	0	0	0	512	502	482	15	
11	0	0	0	0	511	502	482	15	
12	0	0	0	0	511	502	482	14	
13	0	0	0	0	512	502	482	15	
14	0	0	0	0	512	502	482	15	
15	0	0	0	0	513	501	482	15	
0	0	0	0	0	513	502	482	15	
1	0	0	0	0	514	501	482	15	
2	0	0	0	0	514	502	483	15	
3	0	0	0	0	515	502	483	15	
4	0	0	0	0	515	502	483	14	
5	0	0	0	0	515	502	483	15	
6	0	0	0	0	515	501	483	14	
7	0	0	0	0	515	502	483	15	
8	0	0	0	0	516	501	483	15	
9	0	0	0	0	515	501	483	15	
10	0	0	0	0	516	501	483	15	
11	0	0	0	0	515	502	483	15	
12	0	0	0	0	516	501	483	15	
13	0	0	0	0	515	501	483	15	
14	0	0	0	0	515	501	483	15	
15	0	0	0	0	516	501	483	15	
0	0	0	0	0	516	501	484	15	
1	0	0	0	0	516	501	484	15	
2	0	0	0	0	516	501	484	14	
3	0	0	0	0	515	501	484	15	
4	0	0	0	0	517	502	484	15	
5	0	0	0	0	516	501	484	15	
6	0	0	0	0	516	501	484	14	
7	0	0	0	0	516	502	484	15	
8	0	0	0	0	516	502	484	15	
9	0	0	0	0	516	502	484	15	
10	0	0	0	0	515	501	484	14	
11	0	0	0	0	515	501	485	15	
12	0	0	0	0	516	501	485	14	
13	0	0	0	0	515	501	484	15	
14	0	0	0	0	516	502	485	15	
15	0	0	0	0	516	501	485	14	
0	0	0	0	0	516	501	485	15	
1	0	0	0	0	515	501	485	14	
2	0	0	0	0	516	502	485	15	
3	0	0	0	0	515	502	485	15	
4	0	0	0	0	515	502	485	14	
5	0	0	0	0	515	502	485	15	
6	0	0	0	0	514	502	486	15	
7	0	0	0	0	514	502	486	15	
8	0	0	0	0	514	502	486	15	
9	0	0	0	0	513	502	486	15	
10	0	0	0	0	513	502	486	15	
11	0	0	0	0	513	502	486	15	
12	0	0	0	0	513	502	486	15	
13	0	0	0	0	512	502	486	15	
14	0	0	0	0	513	502	486	14	
15	0	0	0	0	512	502	486	15	
0	0	0	0	0	512	502	486	15	
1	0	0	0	0	512	502	486	15	
2	0	0	0	0	511	502	486	15	
3	0	0	0	0	512	502	486	14	
4	0	0	0	0	511	501	486	15	
5	0	0	0	0	511	501	486	15	
6	0	0	0	0	510	501	486	15	
7	0	0	0	0	511	502	486	15	
8	0	0	0	0	511	502	486	15	
9	0	0	0	0	510	502	487	15	
10	0	0	0	0	510	501	486	15	
11	0	0	0	0	510	502	487	15	
12	0	0	0	0	510	502	486	15	
13	0	0	0	0	510	502	487	15	
14	0	0	0	0	509	502	487	15	
15	0	0	0	0	508	502	487	15	
0	0	0	0	0	508	502	487	15	
1	0	0	0	0	508	502	487	15	
2	0	0	0	0	507	501	487	15	
3	0	0	0	0	508	502	487	15	
4	0	0	0	0	507	502	487	15	
5	0	0	0	0	507	502	487	15	
6	0	0	0	0	507	502	486	15	
7	0	0	0	0	506	502	487	15	
8	0	0	0	0	506	501	487	15	
9	0	0	0	0	505	501	487	15	
10	0	0	0	0	504	502	486	15	
11	0	0	0	0	505	502	486	15	
12	0	0	0	0	504	502	487	14	
13	0	0	0	0	503	502	486	15	
14	0	0	0	0	503	501	487	15	
15	0	0	0	0	502	502	486	15	
0	0	0	0	0	501	502	486	15	
1	0	0	0	0	501	502	486	15	
2	0	0	0	0	500	502	486	14	
3	0	0	0	0	501	502	487	15	
4	0	0	0	0	499	502	487	15	
5	0	0	0	0	499	502	487	15	
6	0	0	0	0	499	502	487	15	
7	0	0	0	0	499	502	487	15	
8	0	0	0	0	498	502	487	15	
9	0	0	0	0	497	502	486	15	
10	0	0	0	0	497	502	487	15	
11	0	0	0	0	497	502	487	15	
12	0	0	0	0	495	502	486	15	
13	0	0	0	0	495	502	487	15	
14	0	0	0	0	495	501	487	14	
15	0	0	0	0	495	502	486	15	
0	0	0	0	0	494	502	487	15	
1	0	0	0	0	493	502	487	15	
2	0	0	0	0	493	502	487	15	
3	0	0	0	0	492	502	487	15	
4	0	0	0	0	492	502	487	14	
5	0	0	0	0	492	502	487	14	
6	0	0	0	0	491	502	487	15	
7	0	0	0	0	492	502	487	15	
8	0	0	0	0	491	502	487	15	
9	0	0	0	0	490	502	487	15	
10	0	0	0	0	489	502	487	14	
11	0	0	0	0	489	502	487	15	
12	0	0	0	0	489	502	486	15	
13	0	0	0	0	489	502	487	15	
14	0	0	0	0	488	502	487	15	
15	0	0	0	0	488	502	486	15	
0	0	0	0	0	488	502	487	15	
1	0	0	0	0	487	502	486	15	
2	0	0	0	0	487	501	487	15	
3	0	0	0	0	487	502	487	15	
4	0	0	0	0	487	502	487	14	
5	0	0	0	0	485	502	487	15	
6	0	0	0	0	485	502	487	15	
7	0	0	0	0	485	502	486	15	
8	0	0	0	0	485	502	486	15	
9	0	0	0	0	484	502	487	15	
10	0	0	0	0	484	502	486	15	
11	0	0	0	0	484	502	487	15	
12	0	0	0	0	485	502	487	15	
13	0	0	0	0	484	502	487	15	
14	0	0	0	0	484	502	487	14	
15	0	0	0	0	484	502	487	15	
0	0	0	0	0	484	502	487	15	
1	0	0	0	0	484	502	486	15	
2	0	0	0	0	483	502	486	15	
3	0	0	0	0	482	502	486	15	
4	0	0	0	0	482	502	487	14	
5	0	0	0	0	482	502	487	15	
6	0	0	0	0	482	502	486	15	
7	0	0	0	0	481	502	486	15	
8	0	0	0	0	481	502	486	15	
9	0	0	0	0	481	502	487	15	
10	0	0	0	0	480	502	487	14	
11	0	0	0	0	480	502	486	15	
12	0	0	0	0	480	502	487	15	
13	0	0	0	0	480	502	487	15	
14	0	0	0	0	479	501	486	15	
15	0	0	0	0	479	502	486	15	
0	0	0	0	0	479	502	487	15	
1	0	0	0	0	478	502	487	15	
2	0	0	0	0	477	501	487	15	
3	0	0	0	0	477	502	486	15	
4	0	0	0	0	477	502	486	14	
5	0	0	0	0	477	502	486	15	
6	0	0	0	0	476	502	486	15	
7	0	0	0	0	476	502	487	15	
8	0	0	0	0	476	502	486	15	
9	0	0	0	0	476	502	486	15	
10	0	0	0	0	475	502	486	15	
11	0	0	0	0	475	502	486	15	
12	0	0	0	0	475	502	486	14	
13	0	0	0	0	476	502	486	15	
14	0	0	0	0	474	501	486	15	
15	0	0	0	0	474	502	486	15	
0	0	0	0	0	474	501	486	15	
1	0	0	0	0	474	502	486	15	
2	0	0	0	0	473	501	486	15	
3	0	0	0	0	472	502	486	15	
4	0	0	0	0	472	501	486	14	
5	0	0	0	0	473	502	486	15	
6	0	0	0	0	472	502	487	14	
7	0	0	0	0	472	501	487	14	
8	0	0	0	0	472	502	487	15	
9	0	0	0	0	472	501	487	14	
10	0	0	0	0	472	502	487	15	
11	0	0	0	0	471	501	487	14	
12	0	0	0	0	472	502	487	14	
13	0	0	0	0	471	502	487	15	
14	0	0	0	0	471	501	487	15	
15	0	0	0	0	470	502	487	15	
0	0	0	0	0	470	502	487	15	
1	0	0	0	0	470	501	487	15	
2	0	0	0	0	469	501	487	15	
3	0	0	0	0	469	502	487	14	
4	0	0	0	0	469	502	487	15	
5	0	0	0	0	469	502	487	15	
6	0	0	0	0	468	502	487	15	
7	0	0	0	0	468	501	487	15	
8	0	0	0	0	468	501	488	15	
9	0	0	0	0	468	502	488	15	
10	0	0	0	0	467	501	487	15	
11	0	0	0	0	467	502	488	15	
12	0	0	0	0	468	502	488	15	
13	0	0	0	0	467	502	488	15	
14	0	0	0	0	467	502	488	15	
15	0	0	0	0	467	502	488	15	
0	0	0	0	0	467	501	488	15	
1	0	0	0	0	467	501	488	15	
2	0	0	0	0	467	501	489	14	
3	0	0	0	0	467	502	489	15	
4	0	0	0	0	468	502	489	15	
5	0	0	0	0	467	502	489	15	
6	0	0	0	0	467	502	489	15	
7	0	0	0	0	467	501	489	15	
8	0	0	0	0	467	502	489	15	
9	0	0	0	0	467	501	489	14	
10	0	0	0	0	467	502	489	15	
11	0	0	0	0	467	501	489	15	
12	0	0	0	0	467	501	490	15	
13	0	0	0	0	466	502	490	15	
14	0	0	0	0	467	501	490	14	
15	0	0	0	0	467	501	490	15	
0	0	0	0	0	466	501	490	15	
1	0	0	0	0	465	501	490	15	
2	0	0	0	0	466	502	490	15	
3	0	0	0	0	466	501	490	14	
4	0	0	0	0	466	501	490	15	
5	0	0	0	0	465	501	490	15	
6	0	0	0	0	465	501	490	15	
7	0	0	0	0	465	502	490	15	
8	0	0	0	0	466	502	490	15	
9	0	0	0	0	465	502	490	15	
10	0	0	0	0	464	502	490	15	
11	0	0	0	0	464	502	490	15	
12	0	0	0	0	465	502	490	15	
13	0	0	0	0	464	502	490	14	
14	0	0	0	0	464	502	490	15	
15	0	0	0	0	465	502	489	15	
0	0	0	0	0	465	502	490	15	
1	0	0	0	0	464	502	489	15	
2	0	0	0	0	464	502	489	15	
3	0	0	0	0	464	502	490	15	
4	0	0	0	0	464	502	489	14	
5	0	0	0	0	464	502	489	15	
6	0	0	0	0	463	502	489	15	
7	0	0	0	0	464	502	489	15	
8	0	0	0	0	464	502	489	15	
9	0	0	0	0	464	502	489	15	
10	0	0	0	0	464	502	489	15	
11	0	0	0	0	464	502	489	15	
12	0	0	0	0	464	502	488	15	
13	0	0	0	0	463	502	488	15	
14	0	0	0	0	464	502	488	15	
15	0	0	0	0	464	502	488	15	
0	0	0	0	0	465	502	488	15	
1	0	0	0	0	464	502	488	15	
2	0	0	0	0	463	502	488	15	
3	0	0	0	0	464	502	488	15	
4	0	0	0	0	463	502	488	14	
5	0	0	0	0	463	502	488	15	
6	0	0	0	0	463	502	487	15	
7	0	0	0	0	463	502	487	15	
8	0	0	0	0	463	502	487	15	
9	0	0	0	0	463	502	487	15	
10	0	0	0	0	463	502	487	15	
11	0	0	0	0	463	502	487	15	
12	0	0	0	0	463	502	487	14	
13	0	0	0	0	462	502	487	15	
14	0	0	0	0	462	501	487	15	
15	0	0	0	0	463	502	487	15	
0	0	0	0	0	463	502	487	15	
1	0	0	0	0	463	502	487	15	
2	0	0	0	0	463	502	487	15	
3	0	0	0	0	463	502	487	15	
4	0	0	0	0	463	502	487	15	
5	0	0	0	0	462	502	486	15	
6	0	0	0	0	463	502	487	15	
7	0	0	0	0	463	502	487	15	
8	0	0	0	0	463	502	486	15	
9	0	0	0	0	463	502	486	15	
10	0	0	0	0	463	502	486	15	
11	0	0	0	0	463	502	487	15	
12	0	0	0	0	463	501	486	15	
13	0	0	0	0	463	502	486	15	
14	0	0	0	0	463	502	486	15	
15	0	0	0	0	463	502	486	15	
0	0	0	0	0	463	502	486	15	
1	0	0	0	0	463	502	486	15	
2	0	0	0	0	463	502	486	15	
3	0	0	0	0	463	502	486	15	
4	0	0	0	0	463	502	486	15	
5	0	0	0	0	463	502	486	15	
6	0	0	0	0	463	502	486	15	
7	0	0	0	0	463	502	486	15	
8	0	0	0	0	463	502	486	15	
9	0	0	0	0	463	502	485	14	
10	0	0	0	0	463	502	485	15	
11	0	0	0	0	464	502	485	15	
12	0	0	0	0	463	502	484	15	
13	0	0	0	0	463	502	485	15	
14	0	0	0	0	463	502	485	15	
15	0	0	0	0	463	502	484	15	
0	0	0	0	0	463	502	484	15	
1	0	0	0	0	463	502	484	15	
2	0	0	0	0	463	502	484	15	
3	0	0	0	0	463	502	484	15	
4	0	0	0	0	463	501	484	15	
5	0	0	0	0	463	502	484	15	
6	0	0	0	0	464	502	484	15	
7	0	0	0	0	463	502	483	15	
8	0	0	0	0	463	502	483	15	
9	0	0	0	0	463	502	483	15	
10	0	0	0	0	463	502	483	15	
11	0	0	0	0	463	502	483	15	
12	0	0	0	0	463	502	483	15	
13	0	0	0	0	463	502	483	15	
14	0	0	0	0	463	502	483	15	
15	0	0	0	0	463	502	482	15	
0	0	0	0	0	463	502	483	15	
1	0	0	0	0	463	502	482	15	
2	0	0	0	0	463	502	482	15	
3	0	0	0	0	463	502	482	15	
4	0	0	0	0	463	502	482	15	
5	0	0	0	0	464	502	481	15	
6	0	0	0	0	463	501	481	15	
7	0	0	0	0	464	502	481	15	
8	0	0	0	0	463	502	480	15	
9	0	0	0	0	464	502	481	15	
10	0	0	0	0	463	501	480	15	
11	0	0	0	0	464	502	480	15	
12	0	0	0	0	463	502	480	15	
13	0	0	0	0	463	502	480	15	
14	0	0	0	0	464	502	480	15	
15	0	0	0	0	464	502	480	14	
0	0	0	0	0	464	502	480	15	
1	0	0	0	0	464	502	479	15	
2	0	0	0	0	464	502	479	14	
3	0	0	0	0	464	502	479	15	
4	0	0	0	0	464	502	479	15	
5	0	0	0	0	465	502	479	15	
6	0	0	0	0	465	502	479	15	
7	0	0	0	0	465	502	478	15	
8	0	0	0	0	465	502	479	15	
9	0	0	0	0	465	502	478	15	
10	0	0	0	0	467	502	478	15	
11	0	0	0	0	467	502	478	15	
12	0	0	0	0	467	502	478	15	
13	0	0	0	0	467	502	477	15	
14	0	0	0	0	467	502	478	15	
15	0	0	0	0	468	502	477	15	
0	0	0	0	0	468	502	477	15	
1	0	0	0	0	468	502	477	15	
2	0	0	0	0	469	502	477	15	
3	0	0	0	0	470	502	477	15	
4	0	0	0	0	469	502	477	15	
5	0	0	0	0	470	502	477	15	
6	0	0	0	0	471	502	476	15	
7	0	0	0	0	472	502	476	15	
8	0	0	0	0	472	502	476	14	
9	0	0	0	0	472	502	476	15	
10	0	0	0	0	473	501	476	14	
11	0	0	0	0	473	502	476	15	
12	0	0	0	0	474	502	476	15	
13	0	0	0	0	475	501	476	15	
14	0	0	0	0	476	502	476	15	
15	0	0	0	0	477	502	476	14	
0	0	0	0	0	477	501	476	15	
1	0	0	0	0	477	501	476	15	
2	0	0	0	0	479	502	475	15	
3	0	0	0	0	480	502	475	15	
4	0	0	0	0	481	502	475	14	
5	0	0	0	0	481	502	475	15	
6	0	0	0	0	483	502	475	15	
7	0	0	0	0	483	502	475	15	
8	0	0	0	0	485	502	475	15	
9	0	0	0	0	486	502	475	14	
10	0	0	0	0	487	502	475	15	
11	0	0	0	0	488	502	475	15	
12	0	0	0	0	489	502	475	14	
13	0	0	0	0	490	502	475	15	
14	0	0	0	0	493	502	474	15	
15	0	0	0	0	494	502	475	15	
0	0	0	0	0	495	502	474	15	
1	0	0	0	0	497	501	474	15	
2	0	0	0	0	499	502	474	15	
3	0	0	0	0	500	502	474	15	
4	0	0	0	0	502	502	474	14	
5	0	0	0	0	503	502	474	15	
6	0	0	0	0	506	502	473	15	
7	0	0	0	0	508	502	474	15	
8	0	0	0	0	510	502	473	15	
9	0	0	0	0	512	502	473	15	
10	0	0	0	0	515	502	473	15	
11	0	0	0	0	516	501	473	15	
12	0	0	0	0	519	501	473	15	
13	0	0	0	0	521	501	473	14	
14	0	0	0	0	525	502	473	15	
15	0	0	0	0	526	502	473	15	
0	0	0	0	0	529	501	473	15	
1	0	0	0	0	531	502	473	15	
2	0	0	0	0	535	501	472	14	
3	0	0	0	0	537	501	473	15	
4	0	0	0	0	540	502	472	15	
5	0	0	0	0	542	501	472	15	
6	0	0	0	0	545	502	472	15	
7	0	0	0	0	547	502	472	15	
8	0	0	0	0	550	502	472	15	
9	0	0	0	0	552	502	472	15	
10	0	0	0	0	556	501	472	14	
11	0	0	0	0	558	502	472	15	
12	0	0	0	0	561	501	472	15	
13	0	0	0	0	564	502	472	15	
14	0	0	0	0	567	501	471	15	
15	0	0	0	0	569	501	472	15	
0	0	0	0	0	573	501	471	15	
1	0	0	0	0	576	502	471	14	
2	0	0	0	0	579	501	471	15	
3	0	0	0	0	581	501	472	15	
4	0	0	0	0	584	501	471	14	
5	0	0	0	0	588	501	471	15	
6	0	0	0	0	591	502	471	15	
7	0	0	0	0	593	502	471	15	
8	0	0	0	0	596	502	471	15	
9	0	0	0	0	599	502	471	15	
10	0	0	0	0	602	502	470	15	
11	0	0	0	0	605	502	470	14	
12	0	0	0	0	608	501	470	14	
13	0	0	0	0	611	502	470	15	
14	0	0	0	0	614	502	470	15	
15	0	0	0	0	617	502	470	15	
0	0	0	0	0	620	502	470	15	
1	0	0	0	0	622	501	470	15	
2	0	0	0	0	625	502	470	14	
3	0	0	0	0	628	501	470	15	
4	0	0	0	0	632	502	469	15	
5	0	0	0	0	635	501	469	14	
6	0	0	0	0	637	501	469	15	
7	0	0	0	0	639	501	469	15	
8	0	0	0	0	642	501	469	15	
9	0	0	0	0	645	502	469	15	
10	0	0	0	0	647	502	469	15	
11	0	0	0	0	650	502	469	15	
12	0	0	0	0	653	502	469	14	
13	0	0	0	0	655	502	469	15	
14	0	0	0	0	657	502	469	15	
15	0	0	0	0	659	502	468	14	
0	0	0	0	0	662	502	468	15	
1	0	0	0	0	664	502	468	15	
2	0	0	0	0	666	501	468	15	
3	0	0	0	0	669	502	468	15	
4	0	0	0	0	671	501	468	14	
5	0	0	0	0	673	501	468	14	
6	0	0	0	0	675	501	467	15	
7	0	0	0	0	676	501	467	15	
8	0	0	0	0	679	502	468	15	
9	0	0	0	0	681	502	467	15	
10	0	0	0	0	683	501	467	15	
11	0	0	0	0	684	501	467	15	
12	0	0	0	0	685	501	467	15	
13	0	0	0	0	687	502	467	14	
14	0	0	0	0	688	501	467	15	
15	0	0	0	0	690	501	467	15	
0	0	0	0	0	691	501	467	15	
1	0	0	0	0	694	501	467	15	
2	0	0	0	0	696	501	467	15	
3	0	0	0	0	697	501	467	15	
4	0	0	0	0	699	501	467	15	
5	0	0	0	0	700	501	467	15	
6	0	0	0	0	701	501	466	15	
7	0	0	0	0	703	501	466	15	
8	0	0	0	0	704	501	466	15	
9	0	0	0	0	705	501	466	15	
10	0	0	0	0	705	501	466	15	
11	0	0	0	0	706	501	466	15	
12	0	0	0	0	707	501	466	15	
13	0	0	0	0	708	501	466	15	
14	0	0	0	0	707	501	466	15	
15	0	0	0	0	707	501	466	15	
0	0	0	0	0	709	501	466	15	
1	0	0	0	0	709	501	466	15	
2	0	0	0	0	708	501	466	14	
3	0	0	0	0	710	501	465	15	
4	0	0	0	0	710	501	466	15	
5	0	0	0	0	709	501	465	15	
6	0	0	0	0	710	501	465	15	
7	0	0	0	0	709	501	466	14	
8	0	0	0	0	710	501	465	15	
9	0	0	0	0	709	501	465	15	
10	0	0	0	0	708	500	465	14	
11	0	0	0	0	708	501	465	15	
12	0	0	0	0	708	501	465	14	
13	0	0	0	0	707	501	465	15	
14	0	0	0	0	706	501	465	15	
15	0	0	0	0	705	501	465	15	
0	0	0	0	0	706	501	465	15	
1	0	0	0	0	704	501	465	15	
2	0	0	0	0	704	501	465	14	
3	0	0	0	0	703	501	465	15	
4	0	0	0	0	702	501	464	15	
5	0	0	0	0	700	501	465	15	
6	0	0	0	0	699	501	464	15	
7	0	0	0	0	698	501	465	14	
8	0	0	0	0	697	501	464	15	
9	0	0	0	0	695	500	465	15	
10	0	0	0	0	694	501	464	15	
11	0	0	0	0	694	501	464	14	
12	0	0	0	0	692	501	464	15	
13	0	0	0	0	690	500	464	15	
14	0	0	0	0	688	501	464	14	
15	0	0	0	0	688	501	464	15	
0	0	0	0	0	687	501	464	14	
1	0	0	0	0	684	501	464	15	
2	0	0	0	0	683	500	464	15	
3	0	0	0	0	682	500	464	15	
4	0	0	0	0	680	500	464	15	
5	0	0	0	0	679	501	464	14	
6	0	0	0	0	677	500	464	14	
7	0	0	0	0	675	501	464	15	
8	0	0	0	0	674	501	464	15	
9	0	0	0	0	672	501	464	15	
10	0	0	0	0	670	501	464	14	
11	0	0	0	0	668	500	464	15	
12	0	0	0	0	667	501	464	15	
13	0	0	0	0	665	500	464	15	
14	0	0	0	0	664	501	463	15	
15	0	0	0	0	662	500	463	15	
0	0	0	0	0	660	500	464	15	
1	0	0	0	0	658	501	464	14	
2	0	0	0	0	655	500	464	15	
3	0	0	0	0	653	501	464	15	
4	0	0	0	0	652	501	464	14	
5	0	0	0	0	649	501	464	14	
6	0	0	0	0	647	501	463	15	
7	0	0	0	0	644	501	464	15	
8	0	0	0	0	643	501	464	15	
9	0	0	0	0	639	501	463	15	
10	0	0	0	0	637	501	464	14	
11	0	0	0	0	636	501	464	14	
12	0	0	0	0	633	501	464	14	
13	0	0	0	0	631	501	463	15	
14	0	0	0	0	629	501	464	15	
15	0	0	0	0	627	501	464	15	
0	0	0	0	0	625	501	463	15	
1	0	0	0	0	623	501	464	15	
2	0	0	0	0	622	501	464	15	
3	0	0	0	0	620	501	464	14	
4	0	0	0	0	617	501	464	15	
5	0	0	0	0	616	501	463	15	
6	0	0	0	0	613	501	464	15	
7	0	0	0	0	612	501	464	15	
8	0	0	0	0	610	501	463	15	
9	0	0	0	0	608	501	464	15	
10	0	0	0	0	606	501	464	14	
11	0	0	0	0	605	501	463	15	
12	0	0	0	0	604	501	464	15	
13	0	0	0	0	601	501	463	15	
14	0	0	0	0	600	501	464	14	
15	0	0	0	0	598	501	464	15	
0	0	0	0	0	596	501	464	14	
1	0	0	0	0	595	502	464	15	
2	0	0	0	0	593	501	464	14	
3	0	0	0	0	592	501	464	15	
4	0	0	0	0	590	501	464	15	
5	0	0	0	0	588	501	464	15	
6	0	0	0	0	586	501	464	15	
7	0	0	0	0	585	502	464	15	
8	0	0	0	0	583	502	464	15	
9	0	0	0	0	581	501	464	14	
10	0	0	0	0	579	501	464	14	
11	0	0	0	0	579	502	464	15	
12	0	0	0	0	577	501	464	15	
13	0	0	0	0	575	501	464	15	
14	0	0	0	0	574	501	464	14	
15	0	0	0	0	572	502	464	15	
0	0	0	0	0	571	502	464	15	
1	0	0	0	0	569	501	464	14	
2	0	0	0	0	568	501	464	15	
3	0	0	0	0	567	502	464	15	
4	0	0	0	0	565	502	464	14	
5	0	0	0	0	564	502	464	15	
6	0	0	0	0	562	502	464	14	
7	0	0	0	0	561	502	464	15	
8	0	0	0	0	560	502	464	15	
9	0	0	0	0	558	502	464	15	
10	0	0	0	0	557	501	464	15	
11	0	0	0	0	556	502	464	15	
12	0	0	0	0	555	502	464	15	
13	0	0	0	0	553	502	464	15	
14	0	0	0	0	552	502	464	15	
15	0	0	0	0	551	502	464	15	
0	0	0	0	0	550	502	464	15	
1	0	0	0	0	550	502	464	15	
2	0	0	0	0	547	502	464	14	
3	0	0	0	0	547	502	464	15	
4	0	0	0	0	546	502	464	15	
5	0	0	0	0	544	502	464	14	
6	0	0	0	0	543	502	464	15	
7	0	0	0	0	542	502	464	15	
8	0	0	0	0	541	502	464	15	
9	0	0	0	0	540	502	464	15	
10	0	0	0	0	539	502	464	14	
11	0	0	0	0	539	502	464	15	
12	0	0	0	0	537	502	464	14	
13	0	0	0	0	536	502	464	15	
14	0	0	0	0	536	502	464	15	
15	0	0	0	0	535	502	464	14	
0	0	0	0	0	533	502	464	15	
1	0	0	0	0	533	502	464	15	
2	0	0	0	0	531	502	464	15	
3	0	0	0	0	531	502	464	15	
4	0	0	0	0	529	502	464	14	
5	0	0	0	0	529	502	464	14	
6	0	0	0	0	528	502	464	15	
7	0	0	0	0	527	502	464	14	
8	0	0	0	0	527	502	464	15	
9	0	0	0	0	526	502	464	15	
10	0	0	0	0	526	502	464	15	
11	0	0	0	0	524	502	464	15	
12	0	0	0	0	524	502	464	14	
13	0	0	0	0	524	502	464	15	
14	0	0	0	0	523	502	464	15	
15	0	0	0	0	521	502	464	15	
0	0	0	0	0	520	502	464	15	
1	0	0	0	0	519	502	464	15	
2	0	0	0	0	519	502	464	15	
3	0	0	0	0	518	502	464	14	
4	0	0	0	0	517	502	464	14	
5	0	0	0	0	517	502	464	15	
6	0	0	0	0	516	502	464	14	
7	0	0	0	0	515	502	464	15	
8	0	0	0	0	515	502	464	15	
9	0	0	0	0	515	502	464	15	
10	0	0	0	0	513	502	464	14	
11	0	0	0	0	512	502	464	14	
12	0	0	0	0	512	502	464	14	
13	0	0	0	0	511	502	464	15	
14	0	0	0	0	511	502	464	14	
15	0	0	0	0	510	502	464	15	
0	0	0	0	0	509	502	464	15	
1	0	0	0	0	509	502	464	15	
2	0	0	0	0	508	502	464	15	
3	0	0	0	0	507	502	464	15	
4	0	0	0	0	507	502	464	14	
5	0	0	0	0	507	502	464	15	
6	0	0	0	0	507	502	464	15	
7	0	0	0	0	506	502	464	14	
8	0	0	0	0	505	502	464	15	
9	0	0	0	0	505	502	464	14	
10	0	0	0	0	504	501	464	15	
11	0	0	0	0	504	502	464	15	
12	0	0	0	0	504	502	465	14	
13	0	0	0	0	503	502	465	15	
14	0	0	0	0	502	502	465	15	
15	0	0	0	0	501	502	465	15	
0	0	0	0	0	501	502	465	15	
1	0	0	0	0	501	502	465	15	
2	0	0	0	0	500	502	465	15	
3	0	0	0	0	499	502	465	15	
4	0	0	0	0	499	502	465	14	
5	0	0	0	0	499	502	465	15	
6	0	0	0	0	497	502	465	14	
7	0	0	0	0	497	502	465	15	
8	0	0	0	0	496	502	465	15	
9	0	0	0	0	496	502	465	15	
10	0	0	0	0	496	502	465	15	
11	0	0	0	0	496	502	465	14	
12	0	0	0	0	496	502	465	15	
13	0	0	0	0	496	502	465	15	
14	0	0	0	0	495	502	466	15	
15	0	0	0	0	495	502	465	15	
0	0	0	0	0	495	502	465	15	
1	0	0	0	0	495	502	466	15	
2	0	0	0	0	495	502	466	15	
3	0	0	0	0	494	502	466	15	
4	0	0	0	0	494	502	466	15	
5	0	0	0	0	494	502	466	15	
6	0	0	0	0	494	502	466	15	
7	0	0	0	0	493	502	466	15	
8	0	0	0	0	494	502	466	15	
9	0	0	0	0	494	502	466	15	
10	0	0	0	0	494	502	466	15	
11	0	0	0	0	494	502	466	15	
12	0	0	0	0	494	502	467	14	
13	0	0	0	0	493	502	467	15	
14	0	0	0	0	493	502	467	15	
15	0	0	0	0	493	502	467	15	
0	0	0	0	0	493	502	467	15	
1	0	0	0	0	493	502	467	14	
2	0	0	0	0	493	502	467	15	
3	0	0	0	0	494	502	467	15	
4	0	0	0	0	493	502	467	14	
5	0	0	0	0	494	502	467	15	
6	0	0	0	0	493	502	467	15	
7	0	0	0	0	494	502	467	15	
8	0	0	0	0	494	502	467	15	
9	0	0	0	0	493	502	467	15	
10	0	0	0	0	494	502	467	15	
11	0	0	0	0	494	502	468	15	
12	0	0	0	0	494	502	467	14	
13	0	0	0	0	494	502	468	15	
14	0	0	0	0	494	502	468	15	
15	0	0	0	0	495	502	467	15	
0	0	0	0	0	495	502	468	15	
1	0	0	0	0	495	502	468	15	
2	0	0	0	0	496	502	468	15	
3	0	0	0	0	496	502	468	14	
4	0	0	0	0	496	502	468	15	
5	0	0	0	0	496	502	468	15	
6	0	0	0	0	497	502	468	15	
7	0	0	0	0	497	502	468	15	
8	0	0	0	0	497	502	468	15	
9	0	0	0	0	497	502	468	14	
10	0	0	0	0	498	502	469	14	
11	0	0	0	0	499	502	468	15	
12	0	0	0	0	499	502	469	14	
13	0	0	0	0	499	502	469	14	
14	0	0	0	0	500	502	469	15	
15	0	0	0	0	499	502	469	15	
0	0	0	0	0	499	502	469	15	
1	0	0	0	0	500	502	469	15	
2	0	0	0	0	501	502	469	15	
3	0	0	0	0	501	502	469	15	
4	0	0	0	0	501	502	469	15	
5	0	0	0	0	502	502	469	15	
6	0	0	0	0	503	502	470	15	
7	0	0	0	0	502	502	470	14	
8	0	0	0	0	502	502	470	15	
9	0	0	0	0	503	502	470	15	
10	0	0	0	0	503	502	470	15	
11	0	0	0	0	503	502	470	15	
12	0	0	0	0	504	502	470	15	
13	0	0	0	0	504	502	470	15	
14	0	0	0	0	504	502	470	15	
15	0	0	0	0	504	502	470	15	
0	0	0	0	0	505	502	470	15	
1	0	0	0	0	505	502	471	15	
2	0	0	0	0	505	502	471	15	
3	0	0	0	0	505	502	470	15	
4	0	0	0	0	506	502	471	15	
5	0	0	0	0	507	502	471	15	
6	0	0	0	0	507	502	471	15	
7	0	0	0	0	507	502	471	15	
8	0	0	0	0	507	502	471	15	
9	0	0	0	0	507	502	471	15	
10	0	0	0	0	508	502	471	15	
11	0	0	0	0	509	502	471	15	
12	0	0	0	0	509	502	471	14	
13	0	0	0	0	509	502	471	15	
14	0	0	0	0	510	502	471	15	
15	0	0	0	0	510	502	472	15	
0	0	0	0	0	510	502	471	14	
1	0	0	0	0	511	502	472	15	
2	0	0	0	0	511	502	472	14	
3	0	0	0	0	511	502	472	15	
4	0	0	0	0	511	502	472	15	
5	0	0	0	0	511	502	472	15	
6	0	0	0	0	512	502	472	15	
7	0	0	0	0	512	502	472	14	
8	0	0	0	0	512	502	472	15	
9	0	0	0	0	512	502	472	15	
10	0	0	0	0	512	502	472	15	
11	0	0	0	0	512	502	472	14	
12	0	0	0	0	512	502	472	15	
13	0	0	0	0	511	502	472	15	
14	0	0	0	0	513	502	473	15	
15	0	0	0	0	512	502	472	14	
0	0	0	0	0	513	502	473	15	
1	0	0	0	0	513	502	473	15	
2	0	0	0	0	513	502	473	15	
3	0	0	0	0	513	502	473	15	
4	0	0	0	0	513	502	473	15	
5	0	0	0	0	514	502	473	15	
6	0	0	0	0	514	502	473	15	
7	0	0	0	0	514	502	473	15	
8	0	0	0	0	515	502	473	15	
9	0	0	0	0	515	502	473	15	
10	0	0	0	0	515	502	473	15	
11	0	0	0	0	514	502	473	15	
12	0	0	0	0	515	502	474	15	
13	0	0	0	0	515	502	474	15	
14	0	0	0	0	515	502	474	14	
15	0	0	0	0	515	502	474	15	
0	0	0	0	0	515	502	474	15	
1	0	0	0	0	516	502	475	15	
2	0	0	0	0	515	502	475	15	
3	0	0	0	0	515	502	474	15	
4	0	0	0	0	516	502	474	15	
5	0	0	0	0	516	502	475	15	
6	0	0	0	0	515	502	475	15	
7	0	0	0	0	516	502	475	15	
8	0	0	0	0	515	502	475	15	
9	0	0	0	0	516	502	475	15	
10	0	0	0	0	515	502	475	15	
11	0	0	0	0	515	502	475	15	
12	0	0	0	0	515	502	475	15	
13	0	0	0	0	515	502	475	15	
14	0	0	0	0	515	502	476	15	
15	0	0	0	0	515	502	476	14	
0	0	0	0	0	515	502	476	15	
1	0	0	0	0	516	502	476	15	
2	0	0	0	0	515	502	476	15	
3	0	0	0	0	515	502	476	15	
4	0	0	0	0	515	502	476	15	
5	0	0	0	0	515	502	476	15	
6	0	0	0	0	515	502	476	15	
7	0	0	0	0	514	502	476	15	
8	0	0	0	0	514	502	476	15	
9	0	0	0	0	514	502	477	15	
10	0	0	0	0	513	502	476	15	
11	0	0	0	0	513	502	477	15	
12	0	0	0	0	513	502	477	15	
13	0	0	0	0	513	502	477	15	
14	0	0	0	0	513	502	477	15	
15	0	0	0	0	512	502	477	15	
0	0	0	0	0	512	502	477	15	
1	0	0	0	0	512	502	477	15	
2	0	0	0	0	511	502	477	15	
3	0	0	0	0	512	502	478	15	
4	0	0	0	0	511	502	478	14	
5	0	0	0	0	511	502	478	15	
6	0	0	0	0	511	502	478	15	
7	0	0	0	0	511	502	478	15	
8	0	0	0	0	511	502	478	15	
9	0	0	0	0	510	502	478	15	
10	0	0	0	0	510	502	478	15	
11	0	0	0	0	510	502	478	15	
12	0	0	0	0	510	502	478	14	
13	0	0	0	0	509	502	478	15	
14	0	0	0	0	509	502	478	15	
15	0	0	0	0	509	502	478	15	
0	0	0	0	0	509	502	478	15	
1	0	0	0	0	508	502	478	15	
2	0	0	0	0	508	502	478	15	
3	0	0	0	0	508	502	478	15	
4	0	0	0	0	508	502	478	15	
5	0	0	0	0	507	502	478	14	
6	0	0	0	0	507	502	477	15	
7	0	0	0	0	507	502	478	15	
8	0	0	0	0	506	502	477	15	
9	0	0	0	0	506	502	478	15	
10	0	0	0	0	505	502	477	15	
11	0	0	0	0	506	502	477	15	
12	0	0	0	0	506	502	478	14	
13	0	0	0	0	504	501	478	15	
14	0	0	0	0	505	502	478	15	
15	0	0	0	0	505	502	478	14	
0	0	0	0	0	505	502	477	15	
1	0	0	0	0	504	502	478	15	
2	0	0	0	0	504	502	478	15	
3	0	0	0	0	504	502	478	15	
4	0	0	0	0	503	502	478	14	
5	0	0	0	0	503	502	478	15	
6	0	0	0	0	503	502	478	15	
7	0	0	0	0	503	502	478	15	
8	0	0	0	0	502	502	478	15	
9	0	0	0	0	502	502	478	15	
10	0	0	0	0	501	502	478	15	
11	0	0	0	0	501	502	478	15	
12	0	0	0	0	500	502	478	15	
13	0	0	0	0	500	502	478	15	
14	0	0	0	0	500	502	478	15	
15	0	0	0	0	499	502	478	15	
0	0	0	0	0	499	502	479	15	
1	0	0	0	0	499	502	478	15	
2	0	0	0	0	499	502	479	15	
3	0	0	0	0	498	502	479	15	
4	0	0	0	0	497	502	479	15	
5	0	0	0	0	497	502	479	15	
6	0	0	0	0	497	502	479	15	
7	0	0	0	0	496	502	479	15	
8	0	0	0	0	496	502	479	15	
9	0	0	0	0	496	502	479	15	
10	0	0	0	0	496	502	479	15	
11	0	0	0	0	495	502	479	15	
12	0	0	0	0	495	502	479	15	
13	0	0	0	0	494	502	479	15	
14	0	0	0	0	495	502	479	15	
15	0	0	0	0	493	502	479	14	
0	0	0	0	0	493	501	479	15	
1	0	0	0	0	492	502	479	15	
2	0	0	0	0	493	502	479	15	
3	0	0	0	0	492	502	479	15	
4	0	0	0	0	492	502	480	14	
5	0	0	0	0	491	502	479	14	
6	0	0	0	0	491	502	480	15	
7	0	0	0	0	489	502	480	15	
8	0	0	0	0	489	502	479	15	
9	0	0	0	0	488	502	480	15	
10	0	0	0	0	487	502	479	15	
11	0	0	0	0	487	502	480	15	
12	0	0	0	0	487	502	479	14	
13	0	0	0	0	487	502	479	15	
14	0	0	0	0	486	502	479	15	
15	0	0	0	0	486	502	479	15	
0	0	0	0	0	486	502	479	15	
1	0	0	0	0	485	502	479	15	
2	0	0	0	0	485	502	479	15	
3	0	0	0	0	484	502	480	15	
4	0	0	0	0	484	502	479	15	
5	0	0	0	0	484	502	479	15	
6	0	0	0	0	483	502	479	14	
7	0	0	0	0	482	502	479	15	
8	0	0	0	0	483	502	479	15	
9	0	0	0	0	483	502	480	15	
10	0	0	0	0	482	502	479	15	
11	0	0	0	0	481	502	480	14	
12	0	0	0	0	481	502	480	15	
13	0	0	0	0	481	502	479	15	
14	0	0	0	0	480	501	480	15	
15	0	0	0	0	480	502	480	15	
0	0	0	0	0	480	502	480	15	
1	0	0	0	0	480	502	479	15	
2	0	0	0	0	479	501	479	15	
3	0	0	0	0	479	502	480	15	
4	0	0	0	0	479	502	480	15	
5	0	0	0	0	479	502	480	15	
6	0	0	0	0	478	502	480	15	
7	0	0	0	0	478	502	479	15	
8	0	0	0	0	478	502	480	15	
9	0	0	0	0	478	502	480	15	
10	0	0	0	0	476	502	480	15	
11	0	0	0	0	477	502	480	15	
12	0	0	0	0	476	502	480	14	
13	0	0	0	0	476	502	480	15	
14	0	0	0	0	476	502	480	15	
15	0	0	0	0	476	502	480	14	
0	0	0	0	0	476	502	480	15	
1	0	0	0	0	476	502	480	15	
2	0	0	0	0	475	501	480	15	
3	0	0	0	0	476	502	480	15	
4	0	0	0	0	476	502	480	14	
5	0	0	0	0	475	502	480	15	
6	0	0	0	0	475	502	480	15	
7	0	0	0	0	475	502	480	15	
8	0	0	0	0	475	502	480	15	
9	0	0	0	0	475	502	481	15	
10	0	0	0	0	476	502	481	15	
11	0	0	0	0	475	502	481	15	
12	0	0	0	0	476	502	481	15	
13	0	0	0	0	476	502	481	15	
14	0	0	0	0	475	502	481	15	
15	0	0	0	0	476	502	481	15	
0	0	0	0	0	476	502	481	15	
1	0	0	0	0	475	502	482	15	
2	0	0	0	0	476	501	482	15	
3	0	0	0	0	476	502	482	15	
4	0	0	0	0	476	502	482	15	
5	0	0	0	0	476	502	482	15	
6	0	0	0	0	476	502	482	15	
7	0	0	0	0	477	502	483	15	
8	0	0	0	0	476	502	483	15	
9	0	0	0	0	476	502	483	15	
10	0	0	0	0	476	502	483	14	
11	0	0	0	0	476	502	483	15	
12	0	0	0	0	476	502	483	15	
13	0	0	0	0	476	502	483	15	
14	0	0	0	0	476	502	484	15	
15	0	0	0	0	476	502	484	15	
0	0	0	0	0	476	502	484	15	
1	0	0	0	0	475	502	484	15	
2	0	0	0	0	475	502	484	14	
3	0	0	0	0	476	502	485	15	
4	0	0	0	0	475	502	485	15	
5	0	0	0	0	474	502	485	15	
6	0	0	0	0	475	502	486	15	
7	0	0	0	0	475	502	486	15	
8	0	0	0	0	475	502	486	15	
9	0	0	0	0	474	502	486	15	
10	0	0	0	0	475	502	486	15	
11	0	0	0	0	475	502	487	15	
12	0	0	0	0	474	502	486	15	
13	0	0	0	0	474	502	487	15	
14	0	0	0	0	474	502	487	15	
15	0	0	0	0	474	502	487	15	
0	0	0	0	0	474	502	487	15	
1	0	0	0	0	473	502	487	15	
2	0	0	0	0	473	502	487	15	
3	0	0	0	0	474	502	488	14	
4	0	0	0	0	473	502	488	15	
5	0	0	0	0	473	502	488	15	
6	0	0	0	0	473	502	488	15	
7	0	0	0	0	473	502	488	15	
8	0	0	0	0	472	502	488	15	
9	0	0	0	0	472	502	489	15	
10	0	0	0	0	472	502	489	15	
11	0	0	0	0	472	502	489	15	
12	0	0	0	0	471	502	489	15	
13	0	0	0	0	472	502	489	15	
14	0	0	0	0	472	502	489	15	
15	0	0	0	0	472	502	490	15	
0	0	0	0	0	472	502	489	15	
1	0	0	0	0	472	502	489	15	
2	0	0	0	0	471	502	490	15	
3	0	0	0	0	471	502	490	15	
4	0	0	0	0	471	502	490	15	
5	0	0	0	0	470	502	490	15	
6	0	0	0	0	471	502	490	15	
7	0	0	0	0	471	502	490	15	
8	0	0	0	0	470	502	490	15	
9	0	0	0	0	471	502	491	15	
10	0	0	0	0	471	502	490	15	
11	0	0	0	0	471	502	491	15	
12	0	0	0	0	470	502	491	15	
13	0	0	0	0	470	502	491	15	
14	0	0	0	0	471	502	491	15	
15	0	0	0	0	470	502	491	15	
0	0	0	0	0	470	502	491	15	
1	0	0	0	0	470	502	491	15	
2	0	0	0	0	470	502	491	15	
3	0	0	0	0	470	502	491	15	
4	0	0	0	0	470	502	491	14	
5	0	0	0	0	470	502	491	15	
6	0	0	0	0	470	502	491	15	
7	0	0	0	0	470	501	491	15	
8	0	0	0	0	469	502	492	15	
9	0	0	0	0	469	502	491	15	
10	0	0	0	0	470	502	492	15	
11	0	0	0	0	469	502	492	15	
12	0	0	0	0	468	502	492	14	
13	0	0	0	0	470	502	492	15	
14	0	0	0	0	470	502	492	15	
15	0	0	0	0	469	502	492	15	
0	0	0	0	0	468	502	492	15	
1	0	0	0	0	469	502	492	15	
2	0	0	0	0	469	502	492	15	
3	0	0	0	0	469	502	492	15	
4	0	0	0	0	468	502	492	15	
5	0	0	0	0	468	501	492	15	
6	0	0	0	0	468	502	493	15	
7	0	0	0	0	469	502	492	15	
8	0	0	0	0	468	502	492	15	
9	0	0	0	0	468	502	493	15	
10	0	0	0	0	468	501	492	15	
11	0	0	0	0	467	502	493	15	
12	0	0	0	0	468	502	493	15	
13	0	0	0	0	467	502	493	15	
14	0	0	0	0	467	502	493	15	
15	0	0	0	0	467	502	493	15	
0	0	0	0	0	466	502	493	15	
1	0	0	0	0	466	502	493	15	
2	0	0	0	0	467	502	493	15	
3	0	0	0	0	466	502	493	15	
4	0	0	0	0	465	502	493	15	
5	0	0	0	0	465	502	494	15	
6	0	0	0	0	466	502	493	15	
7	0	0	0	0	466	502	494	15	
8	0	0	0	0	465	502	494	15	
9	0	0	0	0	465	502	494	15	
10	0	0	0	0	465	501	494	15	
11	0	0	0	0	465	502	494	15	
12	0	0	0	0	464	502	493	14	
13	0	0	0	0	464	502	494	14	
14	0	0	0	0	464	502	494	15	
15	0	0	0	0	464	502	493	15	
0	0	0	0	0	463	502	494	15	
1	0	0	0	0	463	501	493	15	
2	0	0	0	0	463	502	493	15	
3	0	0	0	0	463	502	494	15	
4	0	0	0	0	462	501	493	14	
5	0	0	0	0	463	502	493	15	
6	0	0	0	0	463	502	493	15	
7	0	0	0	0	462	502	492	15	
8	0	0	0	0	462	502	492	15	
9	0	0	0	0	461	502	492	15	
10	0	0	0	0	461	502	492	15	
11	0	0	0	0	461	502	492	15	
12	0	0	0	0	460	502	492	15	
13	0	0	0	0	460	502	492	15	
14	0	0	0	0	460	501	492	15	
15	0	0	0	0	460	502	491	15	
0	0	0	0	0	459	501	491	15	
1	0	0	0	0	459	501	491	15	
2	0	0	0	0	460	502	491	15	
3	0	0	0	0	459	501	491	15	
4	0	0	0	0	459	502	490	15	
5	0	0	0	0	459	501	490	15	
6	0	0	0	0	459	502	490	15	
7	0	0	0	0	458	502	490	15	
8	0	0	0	0	458	501	489	15	
9	0	0	0	0	458	501	489	15	
10	0	0	0	0	458	502	489	15	
11	0	0	0	0	457	502	488	15	
12	0	0	0	0	458	502	489	15	
13	0	0	0	0	458	502	488	15	
14	0	0	0	0	458	502	488	15	
15	0	0	0	0	457	502	488	15	
0	0	0	0	0	457	502	488	15	
1	0	0	0	0	458	502	487	15	
2	0	0	0	0	457	502	487	15	
3	0	0	0	0	457	502	487	15	
4	0	0	0	0	457	501	487	15	
5	0	0	0	0	457	502	487	15	
6	0	0	0	0	457	502	487	15	
7	0	0	0	0	457	501	487	15	
8	0	0	0	0	458	502	487	15	
9	0	0	0	0	458	502	487	15	
10	0	0	0	0	457	502	486	15	
11	0	0	0	0	457	502	486	14	
12	0	0	0	0	458	502	486	15	
13	0	0	0	0	458	502	486	15	
14	0	0	0	0	459	502	486	15	
15	0	0	0	0	459	502	486	15	
0	0	0	0	0	460	501	486	15	
1	0	0	0	0	460	501	486	15	
2	0	0	0	0	460	502	485	15	
3	0	0	0	0	460	502	485	15	
4	0	0	0	0	461	502	485	14	
5	0	0	0	0	462	501	485	15	
6	0	0	0	0	462	501	485	15	
7	0	0	0	0	463	502	485	15	
8	0	0	0	0	463	502	485	15	
9	0	0	0	0	464	501	484	15	
10	0	0	0	0	465	502	484	15	
11	0	0	0	0	466	501	484	15	
12	0	0	0	0	467	502	484	15	
13	0	0	0	0	468	502	484	14	
14	0	0	0	0	469	501	484	15	
15	0	0	0	0	470	502	484	15	
0	0	0	0	0	472	501	483	15	
1	0	0	0	0	473	502	484	15	
2	0	0	0	0	474	502	484	15	
3	0	0	0	0	475	502	484	15	
4	0	0	0	0	478	502	483	15	
5	0	0	0	0	478	502	483	15	
6	0	0	0	0	480	502	483	15	
7	0	0	0	0	481	502	483	15	
8	0	0	0	0	483	502	483	15	
9	0	0	0	0	484	502	483	15	
10	0	0	0	0	486	501	483	15	
11	0	0	0	0	488	502	483	15	
12	0	0	0	0	491	502	483	14	
13	0	0	0	0	492	502	483	15	
14	0	0	0	0	494	501	483	15	
15	0	0	0	0	496	502	483	14	
0	0	0	0	0	499	502	482	15	
1	0	0	0	0	501	502	482	15	
2	0	0	0	0	503	502	482	15	
3	0	0	0	0	506	502	482	15	
4	0	0	0	0	509	502	482	15	
5	0	0	0	0	511	502	482	15	
6	0	0	0	0	513	502	482	15	
7	0	0	0	0	516	502	481	15	
8	0	0	0	0	519	502	481	15	
9	0	0	0	0	521	501	481	15	
10	0	0	0	0	525	502	481	15	
11	0	0	0	0	528	502	481	15	
12	0	0	0	0	531	502	480	15	
13	0	0	0	0	534	501	480	15	
14	0	0	0	0	537	502	480	14	
15	0	0	0	0	540	502	480	15	
0	0	0	0	0	544	502	480	15	
1	0	0	0	0	547	502	479	15	
2	0	0	0	0	550	502	479	15	
3	0	0	0	0	555	502	479	15	
4	0	0	0	0	558	502	479	15	
5	0	0	0	0	562	502	478	15	
6	0	0	0	0	564	502	478	15	
7	0	0	0	0	569	502	477	15	
8	0	0	0	0	572	501	477	15	
9	0	0	0	0	575	502	476	15	
10	0	0	0	0	579	502	476	15	
11	0	0	0	0	583	502	476	15	
12	0	0	0	0	587	502	475	15	
13	0	0	0	0	590	502	475	15	
14	0	0	0	0	594	502	475	15	
15	0	0	0	0	599	502	474	14	
0	0	0	0	0	603	502	473	15	
1	0	0	0	0	606	502	473	15	
2	0	0	0	0	609	501	472	15	
3	0	0	0	0	613	502	472	15	
4	0	0	0	0	617	502	471	14	
5	0	0	0	0	621	502	470	15	
6	0	0	0	0	624	502	470	14	
7	0	0	0	0	628	502	469	15	
8	0	0	0	0	632	502	468	15	
9	0	0	0	0	635	502	467	15	
10	0	0	0	0	639	501	467	14	
11	0	0	0	0	643	502	466	15	
12	0	0	0	0	647	502	466	15	
13	0	0	0	0	651	502	465	15	
14	0	0	0	0	654	502	464	15	
15	0	0	0	0	658	502	464	15	
0	0	0	0	0	662	502	463	15	
1	0	0	0	0	665	502	462	15	
2	0	0	0	0	669	502	462	15	
3	0	0	0	0	673	502	460	14	
4	0	0	0	0	677	502	460	15	
5	0	0	0	0	679	502	459	15	
6	0	0	0	0	683	502	458	15	
7	0	0	0	0	687	502	457	15	
8	0	0	0	0	691	502	456	15	
9	0	0	0	0	693	502	456	15	
10	0	0	0	0	697	502	455	15	
11	0	0	0	0	700	502	454	15	
12	0	0	0	0	704	502	454	15	
13	0	0	0	0	707	502	453	14	
14	0	0	0	0	710	502	452	15	
15	0	0	0	0	713	502	451	15	
0	0	0	0	0	716	502	451	15	
1	0	0	0	0	719	502	450	15	
2	0	0	0	0	721	502	449	14	
3	0	0	0	0	725	502	449	15	
4	0	0	0	0	728	502	448	15	
5	0	0	0	0	730	502	447	15	
6	0	0	0	0	733	502	447	15	
7	0	0	0	0	735	502	446	15	
8	0	0	0	0	739	502	445	15	
9	0	0	0	0	740	502	444	14	
10	0	0	0	0	743	501	444	15	
11	0	0	0	0	745	502	443	15	
12	0	0	0	0	748	502	443	14	
13	0	0	0	0	750	502	441	15	
14	0	0	0	0	751	502	441	15	
15	0	0	0	0	755	502	440	15	
0	0	0	0	0	756	502	440	15	
1	0	0	0	0	757	502	439	14	
2	0	0	0	0	759	502	439	15	
3	0	0	0	0	762	502	438	15	
4	0	0	0	0	763	502	437	15	
5	0	0	0	0	764	502	437	14	
6	0	0	0	0	765	502	436	14	
7	0	0	0	0	768	502	435	15	
8	0	0	0	0	769	502	435	15	
9	0	0	0	0	770	501	435	14	
10	0	0	0	0	771	502	433	15	
11	0	0	0	0	772	502	433	15	
12	0	0	0	0	774	502	433	14	
13	0	0	0	0	774	502	432	15	
14	0	0	0	0	775	502	432	15	
15	0	0	0	0	775	502	431	14	
0	0	0	0	0	777	502	430	14	
1	0	0	0	0	777	501	430	14	
2	0	0	0	0	779	502	430	14	
3	0	0	0	0	779	502	429	15	
4	0	0	0	0	780	502	428	14	
5	0	0	0	0	780	502	428	14	
6	0	0	0	0	781	502	428	14	
7	0	0	0	0	781	502	427	15	
8	0	0	0	0	781	501	426	14	
9	0	0	0	0	782	502	425	15	
10	0	0	0	0	781	501	425	14	
11	0	0	0	0	782	502	425	14	
12	0	0	0	0	782	502	424	14	
13	0	0	0	0	781	501	424	15	
14	0	0	0	0	783	502	423	14	
15	0	0	0	0	782	501	423	14	
0	0	0	0	0	782	502	423	15	
1	0	0	0	0	781	502	422	14	
2	0	0	0	0	781	501	421	14	
3	0	0	0	0	781	502	421	14	
4	0	0	0	0	781	501	420	14	
5	0	0	0	0	780	502	420	14	
6	0	0	0	0	779	502	419	14	
7	0	0	0	0	779	501	419	15	
8	0	0	0	0	779	502	419	15	
9	0	0	0	0	777	502	419	14	
10	0	0	0	0	776	501	418	15	
11	0	0	0	0	776	502	417	14	
12	0	0	0	0	775	501	417	14	
13	0	0	0	0	775	501	416	14	
14	0	0	0	0	773	501	416	14	
15	0	0	0	0	773	502	415	14	
0	0	0	0	0	772	502	415	15	
1	0	0	0	0	770	501	415	15	
2	0	0	0	0	770	501	414	14	
3	0	0	0	0	768	501	414	14	
4	0	0	0	0	767	501	413	14	
5	0	0	0	0	766	501	413	14	
6	0	0	0	0	766	501	412	14	
7	0	0	0	0	764	502	412	14	
8	0	0	0	0	762	501	411	14	
9	0	0	0	0	761	501	411	14	
10	0	0	0	0	760	502	410	14	
11	0	0	0	0	758	501	410	14	
12	0	0	0	0	757	502	410	14	
13	0	0	0	0	755	501	409	14	
14	0	0	0	0	754	501	408	14	
15	0	0	0	0	752	501	408	14	
0	0	0	0	0	751	501	408	15	
1	0	0	0	0	749	501	408	14	
2	0	0	0	0	748	501	407	14	
3	0	0	0	0	747	502	406	14	
4	0	0	0	0	745	501	406	14	
5	0	0	0	0	743	501	406	14	
6	0	0	0	0	742	501	405	14	
7	0	0	0	0	739	501	405	14	
8	0	0	0	0	737	501	404	15	
9	0	0	0	0	736	501	404	14	
10	0	0	0	0	734	501	403	14	
11	0	0	0	0	733	501	403	15	
12	0	0	0	0	730	501	403	14	
13	0	0	0	0	728	501	402	14	
14	0	0	0	0	727	501	401	14	
15	0	0	0	0	724	501	401	14	
0	0	0	0	0	723	501	401	15	
1	0	0	0	0	721	502	401	14	
2	0	0	0	0	719	501	400	15	
3	0	0	0	0	717	501	400	14	
4	0	0	0	0	714	501	399	14	
5	0	0	0	0	713	502	399	15	
6	0	0	0	0	711	501	399	14	
7	0	0	0	0	710	501	399	14	
8	0	0	0	0	708	501	398	14	
9	0	0	0	0	706	501	398	15	
10	0	0	0	0	704	501	398	15	
11	0	0	0	0	702	501	397	14	
12	0	0	0	0	701	501	396	14	
13	0	0	0	0	700	501	396	15	
14	0	0	0	0	697	501	396	14	
15	0	0	0	0	696	501	396	15	
0	0	0	0	0	694	501	396	14	
1	0	0	0	0	692	501	396	14	
2	0	0	0	0	690	501	396	14	
3	0	0	0	0	688	501	395	14	
4	0	0	0	0	687	501	395	14	
5	0	0	0	0	686	501	395	14	
6	0	0	0	0	683	501	394	14	
7	0	0	0	0	681	501	394	14	
8	0	0	0	0	680	501	394	14	
9	0	0	0	0	679	502	394	15	
10	0	0	0	0	677	501	393	14	
11	0	0	0	0	675	501	393	15	
12	0	0	0	0	675	501	393	14	
13	0	0	0	0	673	501	393	15	
14	0	0	0	0	671	501	393	14	
15	0	0	0	0	670	501	393	14	
0	0	0	0	0	669	502	393	15	
1	0	0	0	0	667	501	393	14	
2	0	0	0	0	665	501	393	14	
3	0	0	0	0	664	502	392	15	
4	0	0	0	0	663	501	393	14	
5	0	0	0	0	662	501	393	14	
6	0	0	0	0	659	501	392	14	
7	0	0	0	0	658	501	392	14	
8	0	0	0	0	657	501	392	15	
9	0	0	0	0	655	501	392	14	
10	0	0	0	0	654	501	393	15	
11	0	0	0	0	653	501	392	14	
12	0	0	0	0	652	501	393	14	
13	0	0	0	0	650	501	392	14	
14	0	0	0	0	648	501	393	14	
15	0	0	0	0	647	501	393	15	
0	0	0	0	0	646	501	393	15	
1	0	0	0	0	644	501	393	14	
2	0	0	0	0	643	501	393	15	
3	0	0	0	0	643	501	393	14	
4	0	0	0	0	641	501	393	14	
5	0	0	0	0	639	501	393	14	
6	0	0	0	0	638	501	393	14	
7	0	0	0	0	638	502	393	14	
8	0	0	0	0	636	501	393	14	
9	0	0	0	0	635	501	393	14	
10	0	0	0	0	633	501	393	14	
11	0	0	0	0	633	502	394	14	
12	0	0	0	0	631	502	394	14	
13	0	0	0	0	629	501	393	14	
14	0	0	0	0	627	501	394	14	
15	0	0	0	0	627	502	394	14	
0	0	0	0	0	625	502	393	14	
1	0	0	0	0	624	502	394	14	
2	0	0	0	0	624	502	394	14	
3	0	0	0	0	622	502	394	14	
4	0	0	0	0	621	502	394	14	
5	0	0	0	0	620	502	394	14	
6	0	0	0	0	619	502	395	14	
7	0	0	0	0	617	502	394	14	
8	0	0	0	0	615	502	394	14	
9	0	0	0	0	615	502	395	14	
10	0	0	0	0	614	502	394	14	
11	0	0	0	0	613	502	395	15	
12	0	0	0	0	611	502	395	14	
13	0	0	0	0	609	502	395	14	
14	0	0	0	0	608	502	395	14	
15	0	0	0	0	607	502	394	14	
0	0	0	0	0	606	501	395	14	
1	0	0	0	0	605	501	395	14	
2	0	0	0	0	604	501	395	14	
3	0	0	0	0	603	502	395	14	
4	0	0	0	0	601	502	395	14	
5	0	0	0	0	600	502	395	14	
6	0	0	0	0	599	502	395	14	
7	0	0	0	0	598	502	395	15	
8	0	0	0	0	596	501	395	14	
9	0	0	0	0	595	501	395	14	
10	0	0	0	0	594	502	395	15	
11	0	0	0	0	592	502	395	14	
12	0	0	0	0	591	501	395	14	
13	0	0	0	0	590	501	394	14	
14	0	0	0	0	588	501	395	14	
15	0	0	0	0	588	502	395	14	
0	0	0	0	0	587	502	395	14	
1	0	0	0	0	585	502	395	14	
2	0	0	0	0	583	502	395	14	
3	0	0	0	0	583	501	395	14	
4	0	0	0	0	582	501	394	15	
5	0	0	0	0	580	502	395	14	
6	0	0	0	0	579	502	395	14	
7	0	0	0	0	579	502	395	14	
8	0	0	0	0	577	501	395	15	
9	0	0	0	0	577	502	395	14	
10	0	0	0	0	575	501	395	14	
11	0	0	0	0	574	501	394	14	
12	0	0	0	0	572	501	395	14	
13	0	0	0	0	572	501	394	14	
14	0	0	0	0	571	501	394	15	
15	0	0	0	0	569	501	394	15	
0	0	0	0	0	569	502	395	15	
1	0	0	0	0	568	502	395	14	
2	0	0	0	0	567	502	394	15	
3	0	0	0	0	566	502	394	14	
4	0	0	0	0	566	502	395	14	
5	0	0	0	0	565	502	394	14	
6	0	0	0	0	564	502	395	14	
7	0	0	0	0	563	501	394	14	
8	0	0	0	0	563	502	395	15	
9	0	0	0	0	562	502	395	14	
10	0	0	0	0	562	502	395	14	
11	0	0	0	0	561	502	395	14	
12	0	0	0	0	561	502	394	14	
13	0	0	0	0	561	502	395	15	
14	0	0	0	0	560	502	395	14	
15	0	0	0	0	560	502	395	14	
0	0	0	0	0	560	502	395	14	
1	0	0	0	0	560	501	395	14	
2	0	0	0	0	560	502	395	14	
3	0	0	0	0	559	502	395	14	
4	0	0	0	0	559	501	395	14	
5	0	0	0	0	560	502	395	14	
6	0	0	0	0	559	501	395	14	
7	0	0	0	0	560	502	395	14	
8	0	0	0	0	560	502	395	14	
9	0	0	0	0	560	501	395	14	
10	0	0	0	0	560	501	396	14	
11	0	0	0	0	560	501	396	14	
12	0	0	0	0	560	502	396	14	
13	0	0	0	0	560	502	396	14	
14	0	0	0	0	560	502	396	14	
15	0	0	0	0	560	502	396	15	
0	0	0	0	0	560	501	396	15	
1	0	0	0	0	561	502	396	15	
2	0	0	0	0	561	502	396	15	
3	0	0	0	0	561	502	396	14	
4	0	0	0	0	561	502	396	14	
5	0	0	0	0	561	501	396	15	
6	0	0	0	0	562	502	397	14	
7	0	0	0	0	563	502	397	14	
8	0	0	0	0	563	502	397	14	
9	0	0	0	0	563	501	397	14	
10	0	0	0	0	563	501	397	14	
11	0	0	0	0	564	502	397	15	
12	0	0	0	0	564	502	397	14	
13	0	0	0	0	565	502	398	14	
14	0	0	0	0	566	502	397	14	
15	0	0	0	0	565	501	398	14	
0	0	0	0	0	567	501	398	15	
1	0	0	0	0	567	501	398	14	
2	0	0	0	0	568	502	398	15	
3	0	0	0	0	568	502	398	15	
4	0	0	0	0	568	501	398	14	
5	0	0	0	0	569	502	398	15	
6	0	0	0	0	569	502	398	14	
7	0	0	0	0	570	502	398	14	
8	0	0	0	0	571	502	399	15	
9	0	0	0	0	572	501	398	15	
10	0	0	0	0	573	502	399	15	
11	0	0	0	0	574	502	399	14	
12	0	0	0	0	574	502	399	14	
13	0	0	0	0	575	502	399	14	
14	0	0	0	0	575	502	399	14	
15	0	0	0	0	577	502	399	14	
0	0	0	0	0	577	502	399	15	
1	0	0	0	0	578	502	399	14	
2	0	0	0	0	579	502	399	15	
3	0	0	0	0	579	502	400	15	
4	0	0	0	0	580	502	400	14	
5	0	0	0	0	580	502	400	14	
6	0	0	0	0	581	501	400	14	
7	0	0	0	0	582	502	400	14	
8	0	0	0	0	583	502	400	14	
9	0	0	0	0	583	502	400	14	
10	0	0	0	0	583	502	401	14	
11	0	0	0	0	584	502	401	14	
12	0	0	0	0	584	502	401	14	
13	0	0	0	0	585	502	401	14	
14	0	0	0	0	585	502	401	14	
15	0	0	0	0	586	502	401	14	
0	0	0	0	0	587	502	401	14	
1	0	0	0	0	586	502	402	14	
2	0	0	0	0	588	502	402	14	
3	0	0	0	0	588	502	401	14	
4	0	0	0	0	588	502	402	14	
5	0	0	0	0	589	502	402	14	
6	0	0	0	0	590	502	403	14	
7	0	0	0	0	590	502	402	14	
8	0	0	0	0	590	502	402	15	
9	0	0	0	0	591	502	403	14	
10	0	0	0	0	591	502	403	14	
11	0	0	0	0	591	502	403	14	
12	0	0	0	0	591	502	403	14	
13	0	0	0	0	592	502	404	14	
14	0	0	0	0	593	502	403	14	
15	0	0	0	0	593	502	404	15	
0	0	0	0	0	593	502	404	15	
1	0	0	0	0	593	502	404	14	
2	0	0	0	0	593	502	404	14	
3	0	0	0	0	594	503	405	14	
4	0	0	0	0	594	502	405	14	
5	0	0	0	0	594	502	405	14	
6	0	0	0	0	594	502	405	14	
7	0	0	0	0	594	502	405	14	
8	0	0	0	0	594	502	406	14	
9	0	0	0	0	594	502	406	14	
10	0	0	0	0	595	503	406	14	
11	0	0	0	0	594	502	406	14	
12	0	0	0	0	594	502	406	15	
13	0	0	0	0	594	502	406	15	
14	0	0	0	0	594	502	406	14	
15	0	0	0	0	594	503	407	14	
0	0	0	0	0	594	502	407	15	
1	0	0	0	0	594	502	407	15	
2	0	0	0	0	594	502	407	14	
3	0	0	0	0	594	502	407	14	
4	0	0	0	0	594	502	408	14	
5	0	0	0	0	594	502	408	14	
6	0	0	0	0	594	502	408	15	
7	0	0	0	0	593	502	408	14	
8	0	0	0	0	593	502	408	14	
9	0	0	0	0	593	502	409	14	
10	0	0	0	0	593	502	409	15	
11	0	0	0	0	592	503	409	14	
12	0	0	0	0	592	502	409	14	
13	0	0	0	0	591	503	409	14	
14	0	0	0	0	591	503	409	14	
15	0	0	0	0	591	600	410	14	
0	0	0	0	0	590	1022	409	15	
1	0	0	0	0	590	1022	410	14	
2	0	0	0	0	589	1022	410	14	
3	0	0	0	0	588	1022	411	15	
4	0	0	0	0	588	1022	411	14	
5	0	0	0	0	588	1022	411	15	
6	0	0	0	0	588	1022	411	14	
7	0	0	0	0	587	1022	411	14	
8	0	0	0	0	587	1022	411	14	
9	0	0	0	0	586	1022	411	14	
10	0	0	0	0	586	1022	411	14	
11	0	0	0	0	586	1022	411	14	
12	0	0	0	0	584	1022	411	14	
13	0	0	0	0	584	1022	413	15	
14	0	0	0	0	583	1022	412	14	
15	0	0	0	0	583	1022	412	15	
0	0	0	0	0	583	1022	412	14	
1	0	0	0	0	582	1022	412	15	
2	0	0	0	0	581	1022	413	15	
3	0	0	0	0	580	1022	413	14	
4	0	0	0	0	580	1022	413	14	
5	0	0	0	0	579	1022	413	14	
6	0	0	0	0	579	1022	414	14	
7	0	0	0	0	577	1022	414	14	
8	0	0	0	0	577	1022	414	14	
9	0	0	0	0	576	1022	414	14	
10	0	0	0	0	576	1022	413	15	
11	0	0	0	0	575	1022	413	14	
12	0	0	0	0	574	1022	414	14	
13	0	0	0	0	574	1022	415	14	
14	0	0	0	0	573	1022	416	14	
15	0	0	0	0	572	1022	415	14	
0	0	0	0	0	572	1022	415	15	
1	0	0	0	0	572	1022	414	14	
2	0	0	0	0	571	1022	415	14	
3	0	0	0	0	571	1022	415	15	
4	0	0	0	0	570	1022	415	14	
5	0	0	0	0	569	1022	416	14	
6	0	0	0	0	568	1022	415	14	
7	0	0	0	0	568	1022	416	14	
8	0	0	0	0	567	1022	416	15	
9	0	0	0	0	567	1022	416	15	
10	0	0	0	0	567	1022	416	14	
11	0	0	0	0	566	1022	415	14	
12	0	0	0	0	565	1022	415	14	
13	0	0	0	0	565	1022	416	14	
14	0	0	0	0	564	1022	417	14	
15	0	0	0	0	563	1022	417	14	
0	0	0	0	0	563	1022	418	15	
1	0	0	0	0	562	1022	417	15	
2	0	0	0	0	562	1022	416	15	
3	0	0	0	0	561	1022	417	15	
4	0	0	0	0	561	1022	418	14	
5	0	0	0	0	561	1022	418	14	
6	0	0	0	0	561	1022	418	14	
7	0	0	0	0	560	1022	418	15	
8	0	0	0	0	559	1022	419	15	
9	0	0	0	0	559	1022	418	14	
10	0	0	0	0	559	1022	417	15	
11	0	0	0	0	558	1022	418	14	
12	0	0	0	0	558	1022	419	14	
13	0	0	0	0	557	1022	419	14	
14	0	0	0	0	556	1022	419	15	
15	0	0	0	0	556	1022	419	14	
0	0	0	0	0	556	1022	419	15	
1	0	0	0	0	556	1022	419	15	
2	0	0	0	0	555	1022	419	14	
3	0	0	0	0	554	1022	419	14	
4	0	0	0	0	555	1022	420	14	
5	0	0	0	0	554	1022	420	14	
6	0	0	0	0	553	1022	420	15	
7	0	0	0	0	553	1022	419	14	
8	0	0	0	0	552	1022	420	15	
9	0	0	0	0	551	1022	419	14	
10	0	0	0	0	551	1022	420	14	
11	0	0	0	0	550	1022	422	15	
12	0	0	0	0	551	1022	422	14	
13	0	0	0	0	550	1022	421	15	
14	0	0	0	0	549	1022	420	14	
15	0	0	0	0	549	1022	421	14	
0	0	0	0	0	549	1022	422	15	
1	0	0	0	0	548	1022	422	15	
2	0	0	0	0	547	1022	422	14	
3	0	0	0	0	547	1022	422	14	
4	0	0	0	0	547	1022	422	14	
5	0	0	0	0	547	1022	422	15	
6	0	0	0	0	546	1022	422	14	
7	0	0	0	0	546	1022	422	15	
8	0	0	0	0	545	1022	422	15	
9	0	0	0	0	545	1005	422	14	
10	0	0	0	0	545	1007	423	15	
11	0	0	0	0	544	982	423	15	
12	0	0	0	0	544	984	423	14	
13	0	0	0	0	543	984	423	14	
14	0	0	0	0	543	946	423	14	
15	0	0	0	0	543	921	423	15	
0	0	0	0	0	543	919	423	14	
1	0	0	0	0	542	903	423	14	
2	0	0	0	0	542	891	423	14	
3	0	0	0	0	541	899	423	15	
4	0	0	0	0	541	893	424	14	
5	0	0	0	0	540	875	423	15	
6	0	0	0	0	540	863	424	15	
7	0	0	0	0	540	846	424	14	
8	0	0	0	0	539	840	424	15	
9	0	0	0	0	539	808	424	14	
10	0	0	0	0	537	799	423	15	
11	0	0	0	0	537	797	423	15	
12	0	0	0	0	537	764	424	14	
13	0	0	0	0	536	746	425	15	
14	0	0	0	0	536	743	425	15	
15	0	0	0	0	535	726	425	14	
0	0	0	0	0	534	714	425	14	
1	0	0	0	0	534	709	425	14	
2	0	0	0	0	533	692	424	14	
3	0	0	0	0	532	689	425	15	
4	0	0	0	0	531	691	425	14	
5	0	0	0	0	531	671	426	14	
6	0	0	0	0	530	664	425	14	
7	0	0	0	0	529	668	425	14	
8	0	0	0	0	529	662	425	15	
9	0	0	0	0	528	664	425	14	
10	0	0	0	0	527	659	425	15	
11	0	0	0	0	526	652	426	15	
12	0	0	0	0	526	647	425	14	
13	0	0	0	0	525	640	426	15	
14	0	0	0	0	524	633	426	14	
15	0	0	0	0	524	632	426	15	
0	0	0	0	0	524	625	426	15	
1	0	0	0	0	523	615	426	15	
2	0	0	0	0	522	616	426	14	
3	0	0	0	0	522	615	426	14	
4	0	0	0	0	521	604	426	14	
5	0	0	0	0	520	604	426	15	
6	0	0	0	0	519	600	427	14	
7	0	0	0	0	519	601	426	14	
8	0	0	0	0	519	611	426	14	
9	0	0	0	0	518	612	426	15	
10	0	0	0	0	518	600	427	15	
11	0	0	0	0	517	599	427	15	
12	0	0	0	0	517	599	427	14	
13	0	0	0	0	516	583	426	14	
14	0	0	0	0	515	584	427	15	
15	0	0	0	0	515	582	427	14	
0	0	0	0	0	515	575	427	14	
1	0	0	0	0	514	576	427	15	
2	0	0	0	0	514	582	427	14	
3	0	0	0	0	514	575	427	14	
4	0	0	0	0	514	556	427	14	
5	0	0	0	0	514	543	427	14	
6	0	0	0	0	514	539	427	14	
7	0	0	0	0	514	543	427	15	
8	0	0	0	0	513	563	427	14	
9	0	0	0	0	513	592	428	15	
10	0	0	0	0	513	625	428	15	
11	0	0	0	0	512	658	428	15	
12	0	0	0	0	512	694	428	15	
13	0	0	0	0	512	729	428	14	
14	0	0	0	0	512	767	428	14	
15	0	0	0	0	512	825	428	14	
0	0	0	0	0	513	898	428	15	
1	0	0	0	0	513	981	428	14	
2	0	0	0	0	513	1022	428	15	
3	0	0	0	0	512	1022	428	14	
4	0	0	0	0	513	1022	428	14	
5	0	0	0	0	513	1022	428	15	
6	0	0	0	0	513	1022	428	14	
7	0	0	0	0	513	1022	428	15	
8	0	0	0	0	513	1022	428	15	
9	0	0	0	0	513	1022	428	15	
10	0	0	0	0	513	1022	429	15	
11	0	0	0	0	513	1022	430	15	
12	0	0	0	0	513	1022	429	14	
13	0	0	0	0	513	1022	428	15	
14	0	0	0	0	514	1022	428	15	
15	0	0	0	0	514	1022	429	15	
0	0	0	0	0	514	1022	429	15	
1	0	0	0	0	513	1022	430	14	
2	0	0	0	0	515	1022	430	14	
3	0	0	0	0	515	1022	430	15	
4	0	0	0	0	515	1022	430	14	
5	0	0	0	0	515	1022	430	14	
6	0	0	0	0	515	1022	430	14	
7	0	0	0	0	515	1022	430	14	
8	0	0	0	0	514	1022	430	15	
9	0	0	0	0	515	1022	430	15	
10	0	0	0	0	515	1022	430	14	
11	0	0	0	0	514	1022	429	14	
12	0	0	0	0	514	1022	430	14	
13	0	0	0	0	514	1022	431	15	
14	0	0	0	0	515	1022	431	15	
15	0	0	0	0	515	1022	431	15	
0	0	0	0	0	514	1022	431	15	
1	0	0	0	0	514	1022	430	14	
2	0	0	0	0	513	1022	430	14	
3	0	0	0	0	514	1022	431	14	
4	0	0	0	0	514	1022	431	14	
5	0	0	0	0	513	1022	431	15	
6	0	0	0	0	513	1022	431	15	
7	0	0	0	0	513	1022	431	15	
8	0	0	0	0	513	1022	431	15	
9	0	0	0	0	512	1022	431	15	
10	0	0	0	0	512	1022	430	15	
11	0	0	0	0	512	1022	430	15	
12	0	0	0	0	512	1022	431	14	
13	0	0	0	0	512	1022	432	15	
14	0	0	0	0	512	1022	431	14	
15	0	0	0	0	512	1019	430	15	
0	0	0	0	0	512	880	430	15	
1	0	0	0	0	511	794	431	15	
2	0	0	0	0	512	718	431	15	
3	0	0	0	0	511	668	431	14	
4	0	0	0	0	511	627	431	14	
5	0	0	0	0	511	583	430	15	
6	0	0	0	0	511	543	430	14	
7	0	0	0	0	511	510	430	15	
8	0	0	0	0	511	483	430	15	
9	0	0	0	0	511	468	430	15	
10	0	0	0	0	511	457	430	14	
11	0	0	0	0	510	449	430	15	
12	0	0	0	0	511	437	430	14	
13	0	0	0	0	511	423	430	14	
14	0	0	0	0	511	407	430	14	
15	0	0	0	0	510	389	430	15	
0	0	0	0	0	510	371	430	15	
1	0	0	0	0	511	350	430	15	
2	0	0	0	0	510	338	430	14	
3	0	0	0	0	511	324	430	14	
4	0	0	0	0	510	313	430	14	
5	0	0	0	0	510	302	430	14	
6	0	0	0	0	510	302	430	14	
7	0	0	0	0	509	303	429	14	
8	0	0	0	0	510	299	429	15	
9	0	0	0	0	509	300	430	15	
10	0	0	0	0	508	299	429	14	
11	0	0	0	0	508	300	429	14	
12	0	0	0	0	508	304	429	14	
13	0	0	0	0	508	305	429	14	
14	0	0	0	0	508	306	428	15	
15	0	0	0	0	507	305	428	14	
0	0	0	0	0	507	315	428	15	
1	0	0	0	0	506	317	429	14	
2	0	0	0	0	506	318	428	14	
3	0	0	0	0	505	320	428	15	
4	0	0	0	0	505	321	428	14	
5	0	0	0	0	505	318	428	14	
6	0	0	0	0	504	318	428	14	
7	0	0	0	0	504	316	428	15	
8	0	0	0	0	503	316	428	15	
9	0	0	0	0	502	312	428	14	
10	0	0	0	0	502	316	428	14	
11	0	0	0	0	501	318	428	14	
12	0	0	0	0	499	319	428	14	
13	0	0	0	0	499	320	427	14	
14	0	0	0	0	499	318	428	15	
15	0	0	0	0	499	320	427	15	
0	0	0	0	0	497	324	428	14	
1	0	0	0	0	497	325	427	15	
2	0	0	0	0	496	327	427	15	
3	0	0	0	0	495	329	427	14	
4	0	0	0	0	495	333	427	14	
5	0	0	0	0	494	334	427	14	
6	0	0	0	0	493	335	427	15	
7	0	0	0	0	492	336	426	14	
8	0	0	0	0	491	339	426	15	
9	0	0	0	0	490	336	426	14	
10	0	0	0	0	489	336	426	14	
11	0	0	0	0	488	339	425	15	
12	0	0	0	0	486	339	425	14	
13	0	0	0	0	486	339	425	15	
14	0	0	0	0	485	344	425	14	
15	0	0	0	0	483	348	425	14	
0	0	0	0	0	482	352	425	15	
1	0	0	0	0	481	361	424	15	
2	0	0	0	0	480	364	424	14	
3	0	0	0	0	479	370	424	14	
4	0	0	0	0	478	380	424	14	
5	0	0	0	0	476	385	423	14	
6	0	0	0	0	475	390	423	14	
7	0	0	0	0	473	395	423	14	
8	0	0	0	0	472	400	423	15	
9	0	0	0	0	470	404	423	14	
10	0	0	0	0	469	409	423	14	
11	0	0	0	0	467	412	422	14	
12	0	0	0	0	466	418	422	14	
13	0	0	0	0	465	419	422	14	
14	0	0	0	0	463	422	422	14	
15	0	0	0	0	462	427	422	14	
0	0	0	0	0	460	432	421	15	
1	0	0	0	0	459	434	421	15	
2	0	0	0	0	457	437	421	14	
3	0	0	0	0	455	440	420	14	
4	0	0	0	0	454	444	420	14	
5	0	0	0	0	453	448	420	14	
6	0	0	0	0	451	449	420	14	
7	0	0	0	0	450	450	420	15	
8	0	0	0	0	448	455	419	14	
9	0	0	0	0	447	456	419	14	
10	0	0	0	0	445	464	419	15	
11	0	0	0	0	444	467	419	14	
12	0	0	0	0	442	473	419	14	
13	0	0	0	0	440	476	418	14	
14	0	0	0	0	439	478	418	15	
15	0	0	0	0	437	478	418	15	
0	0	0	0	0	435	483	418	15	
1	0	0	0	0	435	481	418	14	
2	0	0	0	0	432	483	417	15	
3	0	0	0	0	431	483	417	15	
4	0	0	0	0	430	488	417	14	
5	0	0	0	0	428	504	417	14	
6	0	0	0	0	426	526	416	14	
7	0	0	0	0	425	527	417	14	
8	0	0	0	0	423	524	417	14	
9	0	0	0	0	422	521	416	14	
10	0	0	0	0	421	515	416	15	
11	0	0	0	0	419	507	416	14	
12	0	0	0	0	419	503	415	14	
13	0	0	0	0	416	500	415	15	
14	0	0	0	0	416	493	415	14	
15	0	0	0	0	415	492	415	15	
0	0	0	0	0	413	487	415	15	
1	0	0	0	0	413	482	415	14	
2	0	0	0	0	412	480	415	14	
3	0	0	0	0	411	479	415	14	
4	0	0	0	0	409	479	415	15	
5	0	0	0	0	409	475	415	15	
6	0	0	0	0	408	475	414	14	
7	0	0	0	0	407	476	414	14	
8	0	0	0	0	406	475	414	14	
9	0	0	0	0	406	476	414	14	
10	0	0	0	0	406	479	414	14	
11	0	0	0	0	405	479	414	14	
12	0	0	0	0	404	479	414	14	
13	0	0	0	0	403	480	414	15	
14	0	0	0	0	403	479	414	14	
15	0	0	0	0	403	479	414	15	
0	0	0	0	0	403	483	414	14	
1	0	0	0	0	403	484	413	15	
2	0	0	0	0	402	486	414	15	
3	0	0	0	0	401	487	413	15	
4	0	0	0	0	402	494	413	14	
5	0	0	0	0	402	505	413	14	
6	0	0	0	0	402	523	413	14	
7	0	0	0	0	403	543	413	14	
8	0	0	0	0	403	569	413	14	
9	0	0	0	0	403	587	413	15	
10	0	0	0	0	403	603	413	14	
11	0	0	0	0	404	620	412	15	
12	0	0	0	0	404	634	413	14	
13	0	0	0	0	404	642	413	14	
14	0	0	0	0	406	650	413	14	
15	0	0	0	0	407	655	413	14	
0	0	0	0	0	407	664	413	15	
1	0	0	0	0	408	681	413	14	
2	0	0	0	0	409	700	413	14	
3	0	0	0	0	410	721	413	14	
4	0	0	0	0	411	746	413	14	
5	0	0	0	0	412	770	412	14	
6	0	0	0	0	414	796	412	14	
7	0	0	0	0	414	827	412	14	
8	0	0	0	0	416	860	412	15	
9	0	0	0	0	417	888	413	14	
10	0	0	0	0	419	917	414	14	
11	0	0	0	0	420	949	413	14	
12	0	0	0	0	422	981	412	14	
13	0	0	0	0	424	1004	413	15	
14	0	0	0	0	425	1020	413	14	
15	0	0	0	0	427	1022	413	14	
0	0	0	0	0	429	1022	413	14	
1	0	0	0	0	430	1022	414	15	
2	0	0	0	0	433	1022	414	15	
3	0	0	0	0	435	1022	414	14	
4	0	0	0	0	438	1022	414	14	
5	0	0	0	0	439	1022	413	14	
6	0	0	0	0	441	1022	414	15	
7	0	0	0	0	444	1022	413	14	
8	0	0	0	0	446	1022	413	14	
9	0	0	0	0	449	1022	413	14	
10	0	0	0	0	451	1022	413	15	
11	0	0	0	0	454	1022	414	14	
12	0	0	0	0	456	1022	414	14	
13	0	0	0	0	458	1022	414	14	
14	0	0	0	0	460	1022	414	14	
15	0	0	0	0	463	1022	414	14	
0	0	0	0	0	466	1022	413	15	
1	0	0	0	0	468	1022	415	15	
2	0	0	0	0	471	1022	416	14	
3	0	0	0	0	473	1022	415	14	
4	0	0	0	0	476	1022	414	14	
5	0	0	0	0	479	1022	415	15	
6	0	0	0	0	481	1022	415	15	
7	0	0	0	0	484	1022	415	14	
8	0	0	0	0	487	1022	415	15	
9	0	0	0	0	489	1022	415	15	
10	0	0	0	0	492	1022	416	14	
11	0	0	0	0	495	1022	416	14	
12	0	0	0	0	497	1022	416	14	
13	0	0	0	0	499	1022	416	14	
14	0	0	0	0	503	1022	416	14	
15	0	0	0	0	504	1022	415	15	
0	0	0	0	0	508	1022	416	15	
1	0	0	0	0	510	1022	415	14	
2	0	0	0	0	512	1022	417	14	
3	0	0	0	0	515	1022	418	14	
4	0	0	0	0	517	1022	416	14	
5	0	0	0	0	519	1022	417	15	
6	0	0	0	0	522	1022	417	14	
7	0	0	0	0	524	1022	417	14	
8	0	0	0	0	527	1022	417	15	
9	0	0	0	0	529	1022	417	14	
10	0	0	0	0	531	1022	418	14	
11	0	0	0	0	534	1022	418	14	
12	0	0	0	0	536	1022	419	14	
13	0	0	0	0	537	1022	418	14	
14	0	0	0	0	540	1022	418	14	
15	0	0	0	0	543	1022	419	15	
0	0	0	0	0	545	1022	419	14	
1	0	0	0	0	547	1022	419	14	
2	0	0	0	0	549	1022	419	14	
3	0	0	0	0	551	1022	418	14	
4	0	0	0	0	553	1022	418	14	
5	0	0	0	0	555	1022	420	15	
6	0	0	0	0	556	1022	419	14	
7	0	0	0	0	558	1022	419	15	
8	0	0	0	0	560	1022	420	15	
9	0	0	0	0	561	1022	420	15	
10	0	0	0	0	563	1022	420	14	
11	0	0	0	0	564	1022	420	14	
12	0	0	0	0	565	1022	420	14	
13	0	0	0	0	566	1022	421	15	
14	0	0	0	0	568	1022	421	15	
15	0	0	0	0	568	1022	421	14	
0	0	0	0	0	570	1022	420	14	
1	0	0	0	0	571	1022	420	15	
2	0	0	0	0	572	1022	422	15	
3	0	0	0	0	573	1022	423	14	
4	0	0	0	0	574	1022	422	14	
5	0	0	0	0	574	1022	422	15	
6	0	0	0	0	575	1022	422	14	
7	0	0	0	0	575	1022	422	15	
8	0	0	0	0	575	1022	423	15	
9	0	0	0	0	576	1022	423	14	
10	0	0	0	0	577	1022	423	14	
11	0	0	0	0	577	1022	423	14	
12	0	0	0	0	578	1022	423	14	
13	0	0	0	0	578	1022	423	15	
14	0	0	0	0	578	1022	423	14	
15	0	0	0	0	579	1022	425	14	
0	0	0	0	0	579	1022	423	15	
1	0	0	0	0	579	1022	423	14	
2	0	0	0	0	579	1022	424	14	
3	0	0	0	0	579	1022	425	14	
4	0	0	0	0	579	1022	425	14	
5	0	0	0	0	579	1022	425	14	
6	0	0	0	0	579	1022	425	14	
7	0	0	0	0	579	1022	425	15	
8	0	0	0	0	579	1022	425	15	
9	0	0	0	0	579	1022	425	15	
10	0	0	0	0	577	1022	425	15	
11	0	0	0	0	577	1022	426	14	
12	0	0	0	0	576	1022	427	14	
13	0	0	0	0	576	1022	426	14	
14	0	0	0	0	575	1022	426	14	
15	0	0	0	0	575	1022	427	14	
0	0	0	0	0	574	1022	427	14	
1	0	0	0	0	574	1022	427	14	
2	0	0	0	0	573	1022	428	14	
3	0	0	0	0	572	1022	428	14	
4	0	0	0	0	571	1022	427	14	
5	0	0	0	0	570	1022	428	15	
6	0	0	0	0	570	1022	428	14	
7	0	0	0	0	569	1022	427	14	
8	0	0	0	0	567	1022	428	15	
9	0	0	0	0	567	1022	429	15	
10	0	0	0	0	565	1022	428	15	
11	0	0	0	0	565	1022	428	15	
12	0	0	0	0	564	1022	428	14	
13	0	0	0	0	562	1022	428	14	
14	0	0	0	0	561	1022	429	14	
15	0	0	0	0	559	1022	429	14	
0	0	0	0	0	559	1022	429	15	
1	0	0	0	0	557	1022	429	14	
2	0	0	0	0	556	1022	429	15	
3	0	0	0	0	555	1022	429	15	
4	0	0	0	0	553	1022	428	14	
5	0	0	0	0	552	1022	429	14	
6	0	0	0	0	551	1022	431	14	
7	0	0	0	0	550	1022	430	15	
8	0	0	0	0	548	1022	429	15	
9	0	0	0	0	547	1022	430	14	
10	0	0	0	0	546	1022	431	15	
11	0	0	0	0	544	1022	431	14	
12	0	0	0	0	543	1022	431	14	
13	0	0	0	0	542	1022	431	14	
14	0	0	0	0	540	1022	431	14	
15	0	0	0	0	538	1022	431	14	
0	0	0	0	0	537	1022	431	15	
1	0	0	0	0	536	1022	431	14	
2	0	0	0	0	534	1022	431	14	
3	0	0	0	0	532	1022	431	15	
4	0	0	0	0	531	1022	432	14	
5	0	0	0	0	530	1022	433	14	
6	0	0	0	0	528	1022	432	15	
7	0	0	0	0	527	1022	432	15	
8	0	0	0	0	525	1022	432	15	
9	0	0	0	0	524	1022	433	15	
10	0	0	0	0	523	1022	433	14	
11	0	0	0	0	522	1022	433	14	
12	0	0	0	0	520	1022	433	14	
13	0	0	0	0	519	1022	433	14	
14	0	0	0	0	517	1022	434	15	
15	0	0	0	0	516	1022	433	14	
0	0	0	0	0	514	1022	433	15	
1	0	0	0	0	513	1022	434	15	
2	0	0	0	0	511	1022	435	14	
3	0	0	0	0	510	1022	435	15	
4	0	0	0	0	508	1022	434	14	
5	0	0	0	0	507	1022	435	14	
6	0	0	0	0	506	1022	435	15	
7	0	0	0	0	504	1022	436	14	
8	0	0	0	0	503	1022	436	15	
9	0	0	0	0	501	1022	436	14	
10	0	0	0	0	500	1022	436	14	
11	0	0	0	0	499	1022	436	15	
12	0	0	0	0	497	1022	437	14	
13	0	0	0	0	496	1022	437	14	
14	0	0	0	0	495	1022	438	15	
15	0	0	0	0	494	1022	438	15	
0	0	0	0	0	492	1022	438	15	
1	0	0	0	0	491	1022	437	14	
2	0	0	0	0	489	1022	438	15	
3	0	0	0	0	488	1022	439	15	
4	0	0	0	0	487	1022	440	14	
5	0	0	0	0	485	1022	439	14	
6	0	0	0	0	484	1022	439	15	
7	0	0	0	0	483	1022	440	14	
8	0	0	0	0	481	1022	440	15	
9	0	0	0	0	480	1022	440	14	
10	0	0	0	0	479	1022	441	14	
11	0	0	0	0	477	1022	441	15	
12	0	0	0	0	477	1022	441	15	
13	0	0	0	0	476	1022	441	14	
14	0	0	0	0	475	1022	441	15	
15	0	0	0	0	473	1022	442	14	
0	0	0	0	0	473	1022	443	15	
1	0	0	0	0	471	880	443	14	
2	0	0	0	0	470	347	443	15	
3	0	0	0	0	469	0	443	15	
4	0	0	0	0	468	0	444	14	
5	0	0	0	0	467	0	444	14	
6	0	0	0	0	466	0	444	15	
7	0	0	0	0	465	0	444	14	
8	0	0	0	0	464	0	445	15	
9	0	0	0	0	463	0	445	15	
10	0	0	0	0	462	0	445	15	
11	0	0	0	0	461	0	446	15	
12	0	0	0	0	460	0	446	14	
13	0	0	0	0	459	0	446	14	
14	0	0	0	0	458	0	447	14	
15	0	0	0	0	457	0	447	14	
0	0	0	0	0	456	0	448	15	
1	0	0	0	0	455	0	448	15	
2	0	0	0	0	454	0	448	14	
3	0	0	0	0	454	0	448	14	
4	0	0	0	0	452	0	448	15	
5	0	0	0	0	451	0	449	15	
6	0	0	0	0	451	0	450	15	
7	0	0	0	0	450	0	450	14	
8	0	0	0	0	449	0	450	15	
9	0	0	0	0	449	0	450	15	
10	0	0	0	0	448	0	451	15	
11	0	0	0	0	447	0	451	15	
12	0	0	0	0	447	0	451	14	
13	0	0	0	0	446	0	452	14	
14	0	0	0	0	445	0	452	14	
15	0	0	0	0	444	0	453	15	
0	0	0	0	0	444	0	453	15	
1	0	0	0	0	443	0	454	14	
2	0	0	0	0	442	0	454	14	
3	0	0	0	0	441	0	454	15	
4	0	0	0	0	440	0	455	15	
5	0	0	0	0	440	0	455	14	
6	0	0	0	0	439	0	455	15	
7	0	0	0	0	439	0	455	15	
8	0	0	0	0	438	0	456	15	
9	0	0	0	0	437	0	456	15	
10	0	0	0	0	436	0	457	15	
11	0	0	0	0	435	0	457	15	
12	0	0	0	0	435	0	457	14	
13	0	0	0	0	435	0	458	15	
14	0	0	0	0	434	0	459	15	
15	0	0	0	0	434	0	459	15	
0	0	0	0	0	434	0	459	15	
1	0	0	0	0	433	0	459	15	
2	0	0	0	0	433	0	460	14	
3	0	0	0	0	433	0	461	15	
4	0	0	0	0	432	0	461	14	
5	0	0	0	0	432	0	462	15	
6	0	0	0	0	432	0	462	14	
7	0	0	0	0	432	0	462	14	
8	0	0	0	0	431	0	462	15	
9	0	0	0	0	430	0	463	15	
10	0	0	0	0	431	0	463	15	
11	0	0	0	0	430	0	464	15	
12	0	0	0	0	430	0	464	14	
13	0	0	0	0	430	0	465	15	
14	0	0	0	0	429	0	465	14	
15	0	0	0	0	429	0	465	15	
0	0	0	0	0	428	0	466	15	
1	0	0	0	0	428	0	466	15	
2	0	0	0	0	428	0	467	15	
3	0	0	0	0	428	0	467	14	
4	0	0	0	0	427	0	468	14	
5	0	0	0	0	427	0	468	14	
6	0	0	0	0	426	0	469	15	
7	0	0	0	0	426	0	470	15	
8	0	0	0	0	426	0	470	15	
9	0	0	0	0	426	0	471	15	
10	0	0	0	0	426	0	471	15	
11	0	0	0	0	426	0	472	15	
12	0	0	0	0	426	0	472	14	
13	0	0	0	0	425	0	472	15	
14	0	0	0	0	425	0	473	15	
15	0	0	0	0	425	0	473	15	
0	0	0	0	0	425	0	474	15	
1	0	0	0	0	425	0	475	15	
2	0	0	0	0	424	0	475	14	
3	0	0	0	0	424	0	476	15	
4	0	0	0	0	424	0	476	14	
5	0	0	0	0	424	0	476	15	
6	0	0	0	0	424	0	477	15	
7	0	0	0	0	424	0	477	15	
8	0	0	0	0	424	0	478	15	
9	0	0	0	0	424	0	478	15	
10	0	0	0	0	424	0	479	15	
11	0	0	0	0	424	0	479	15	
12	0	0	0	0	425	0	480	14	
13	0	0	0	0	425	0	481	15	
14	0	0	0	0	425	0	480	15	
15	0	0	0	0	425	0	480	15	
0	0	0	0	0	425	0	481	15	
1	0	0	0	0	426	0	482	15	
2	0	0	0	0	426	12	483	15	
3	0	0	0	0	425	33	483	15	
4	0	0	0	0	426	52	483	14	
5	0	0	0	0	427	71	484	15	
6	0	0	0	0	427	89	484	15	
7	0	0	0	0	427	106	484	14	
8	0	0	0	0	427	122	485	15	
9	0	0	0	0	427	138	485	15	
10	0	0	0	0	427	153	487	15	
11	0	0	0	0	427	167	487	14	
12	0	0	0	0	428	180	487	15	
13	0	0	0	0	428	193	487	15	
14	0	0	0	0	429	206	487	15	
15	0	0	0	0	429	218	488	15	
0	0	0	0	0	430	232	489	15	
1	0	0	0	0	430	244	489	15	
2	0	0	0	0	430	255	489	15	
3	0	0	0	0	431	265	490	15	
4	0	0	0	0	431	275	491	15	
5	0	0	0	0	431	286	491	15	
6	0	0	0	0	432	295	491	15	
7	0	0	0	0	433	304	491	15	
8	0	0	0	0	433	312	492	15	
9	0	0	0	0	434	318	492	15	
10	0	0	0	0	434	325	493	15	
11	0	0	0	0	434	332	494	14	
12	0	0	0	0	435	339	494	15	
13	0	0	0	0	435	345	494	15	
14	0	0	0	0	436	352	494	15	
15	0	0	0	0	436	357	495	15	
0	0	0	0	0	437	362	495	15	
1	0	0	0	0	438	368	495	15	
2	0	0	0	0	438	374	496	15	
3	0	0	0	0	439	380	496	15	
4	0	0	0	0	440	386	496	14	
5	0	0	0	0	440	391	497	15	
6	0	0	0	0	441	397	497	15	
7	0	0	0	0	442	402	497	15	
8	0	0	0	0	442	407	498	15	
9	0	0	0	0	443	409	498	15	
10	0	0	0	0	443	416	499	15	
11	0	0	0	0	443	419	499	15	
12	0	0	0	0	444	423	499	15	
13	0	0	0	0	445	423	500	15	
14	0	0	0	0	445	429	499	15	
15	0	0	0	0	446	438	500	15	
0	0	0	0	0	447	444	501	15	
1	0	0	0	0	447	446	501	15	
2	0	0	0	0	448	456	502	15	
3	0	0	0	0	448	463	502	15	
4	0	0	0	0	448	464	502	15	
5	0	0	0	0	448	464	503	15	
6	0	0	0	0	449	460	503	15	
7	0	0	0	0	450	456	503	15	
8	0	0	0	0	450	461	504	15	
9	0	0	0	0	450	467	504	15	
10	0	0	0	0	451	471	504	15	
11	0	0	0	0	451	482	504	15	
12	0	0	0	0	452	501	504	15	
13	0	0	0	0	452	527	505	15	
14	0	0	0	0	452	555	505	15	
15	0	0	0	0	453	584	506	15	
0	0	0	0	0	453	616	506	15	
1	0	0	0	0	454	643	506	15	
2	0	0	0	0	454	663	507	15	
3	0	0	0	0	454	684	507	15	
4	0	0	0	0	455	698	507	15	
5	0	0	0	0	455	707	508	15	
6	0	0	0	0	455	719	508	15	
7	0	0	0	0	456	746	508	15	
8	0	0	0	0	456	788	508	15	
9	0	0	0	0	457	844	508	15	
10	0	0	0	0	457	904	509	15	
11	0	0	0	0	458	968	509	15	
12	0	0	0	0	458	1022	509	15	
13	0	0	0	0	459	1022	510	15	
14	0	0	0	0	459	1022	510	15	
15	0	0	0	0	459	1022	510	15	
0	0	0	0	0	460	1022	511	15	
1	0	0	0	0	460	1022	511	15	
2	0	0	0	0	460	1022	511	15	
3	0	0	0	0	461	1022	511	15	
4	0	0	0	0	461	1022	511	15	
5	0	0	0	0	462	1022	511	15	
6	0	0	0	0	462	1022	512	15	
7	0	0	0	0	461	1022	513	15	
8	0	0	0	0	462	1022	513	15	
9	0	0	0	0	462	1022	513	15	
10	0	0	0	0	462	1022	513	15	
11	0	0	0	0	462	1022	513	15	
12	0	0	0	0	462	1022	513	15	
13	0	0	0	0	463	1022	514	15	
14	0	0	0	0	463	1022	513	15	
15	0	0	0	0	463	1022	514	15	
0	0	0	0	0	463	1022	514	15	
1	0	0	0	0	463	1022	515	15	
2	0	0	0	0	463	1022	515	15	
3	0	0	0	0	463	1022	515	15	
4	0	0	0	0	464	1022	515	15	
5	0	0	0	0	463	1022	516	15	
6	0	0	0	0	463	1022	516	15	
7	0	0	0	0	463	1022	516	15	
8	0	0	0	0	464	1022	515	15	
9	0	0	0	0	464	1022	516	15	
10	0	0	0	0	464	1022	517	15	
11	0	0	0	0	464	1022	517	15	
12	0	0	0	0	464	1022	517	15	
13	0	0	0	0	465	1022	518	15	
14	0	0	0	0	465	1022	518	15	
15	0	0	0	0	465	1022	518	15	
0	0	0	0	0	464	1022	518	15	
1	0	0	0	0	464	1022	519	15	
2	0	0	0	0	464	1022	519	15	
3	0	0	0	0	464	1022	519	15	
4	0	0	0	0	465	1022	519	15	
5	0	0	0	0	464	1022	519	15	
6	0	0	0	0	464	1022	520	15	
7	0	0	0	0	464	1022	519	15	
8	0	0	0	0	465	1022	520	15	
9	0	0	0	0	464	1022	520	15	
10	0	0	0	0	464	1022	520	15	
11	0	0	0	0	464	1022	521	15	
12	0	0	0	0	463	1022	522	15	
13	0	0	0	0	464	1022	521	15	
14	0	0	0	0	463	1022	521	15	
15	0	0	0	0	463	1022	521	15	
0	0	0	0	0	463	1022	522	15	
1	0	0	0	0	463	1022	522	15	
2	0	0	0	0	463	1022	523	15	
3	0	0	0	0	463	1022	523	15	
4	0	0	0	0	462	1022	523	15	
5	0	0	0	0	462	1022	523	15	
6	0	0	0	0	462	1022	524	15	
7	0	0	0	0	462	1022	523	15	
8	0	0	0	0	462	1022	524	15	
9	0	0	0	0	462	1022	525	15	
10	0	0	0	0	462	1022	524	15	
11	0	0	0	0	461	1023	524	15	
12	0	0	0	0	461	1022	524	15	
13	0	0	0	0	461	1022	524	15	
14	0	0	0	0	461	1022	525	15	
15	0	0	0	0	460	1022	525	15	
0	0	0	0	0	460	1022	525	15	
1	0	0	0	0	460	1022	525	15	
2	0	0	0	0	460	1022	525	15	
3	0	0	0	0	459	1022	526	15	
4	0	0	0	0	459	1022	526	15	
5	0	0	0	0	459	1022	526	15	
6	0	0	0	0	458	1022	526	15	
7	0	0	0	0	458	1022	527	15	
8	0	0	0	0	458	1022	526	15	
9	0	0	0	0	457	1022	527	15	
10	0	0	0	0	457	1022	526	15	
11	0	0	0	0	457	1022	527	15	
12	0	0	0	0	456	1022	527	15	
13	0	0	0	0	457	1022	527	15	
14	0	0	0	0	455	1022	527	15	
15	0	0	0	0	456	1022	527	15	
0	0	0	0	0	455	1022	527	15	
1	0	0	0	0	455	1022	527	15	
2	0	0	0	0	455	1022	527	15	
3	0	0	0	0	455	1022	527	15	
4	0	0	0	0	455	1022	527	15	
5	0	0	0	0	455	1022	528	15	
6	0	0	0	0	454	1022	527	15	
7	0	0	0	0	454	1022	527	15	
8	0	0	0	0	454	1022	527	15	
9	0	0	0	0	454	1022	527	15	
10	0	0	0	0	453	1022	528	15	
11	0	0	0	0	453	1022	528	15	
12	0	0	0	0	452	1022	528	15	
13	0	0	0	0	452	1022	527	15	
14	0	0	0	0	451	1022	528	15	
15	0	0	0	0	451	1022	528	15	
0	0	0	0	0	451	1022	528	15	
1	0	0	0	0	451	1022	527	15	
2	0	0	0	0	450	1022	528	15	
3	0	0	0	0	451	1022	529	15	
4	0	0	0	0	450	1022	528	15	
5	0	0	0	0	450	1022	528	15	
6	0	0	0	0	449	1022	528	15	
7	0	0	0	0	449	1022	529	15	
8	0	0	0	0	449	1022	529	15	
9	0	0	0	0	449	1022	528	15	
10	0	0	0	0	449	1022	529	15	
11	0	0	0	0	449	1022	529	15	
12	0	0	0	0	449	1022	529	15	
13	0	0	0	0	449	1022	529	15	
14	0	0	0	0	448	1022	530	15	
15	0	0	0	0	448	1022	529	15	
0	0	0	0	0	448	1022	529	15	
1	0	0	0	0	447	724	529	15	
2	0	0	0	0	448	421	529	15	
3	0	0	0	0	447	129	530	15	
4	0	0	0	0	447	0	529	15	
5	0	0	0	0	447	0	530	15	
6	0	0	0	0	446	0	530	15	
7	0	0	0	0	446	0	530	15	
8	0	0	0	0	446	0	530	15	
9	0	0	0	0	446	0	530	15	
10	0	0	0	0	445	0	530	15	
11	0	0	0	0	445	0	530	15	
12	0	0	0	0	445	0	530	15	
13	0	0	0	0	444	0	531	15	
14	0	0	0	0	444	0	531	15	
15	0	0	0	0	444	0	531	15	
0	0	0	0	0	444	0	531	15	
1	0	0	0	0	444	0	531	15	
2	0	0	0	0	443	0	531	15	
3	0	0	0	0	443	0	531	15	
4	0	0	0	0	442	0	531	15	
5	0	0	0	0	442	0	532	15	
6	0	0	0	0	442	0	532	15	
7	0	0	0	0	442	0	532	15	
8	0	0	0	0	442	0	533	15	
9	0	0	0	0	441	0	532	15	
10	0	0	0	0	441	0	532	15	
11	0	0	0	0	440	0	533	15	
12	0	0	0	0	440	0	533	15	
13	0	0	0	0	440	0	534	15	
14	0	0	0	0	440	0	534	15	
15	0	0	0	0	440	0	534	15	
0	0	0	0	0	439	0	534	15	
1	0	0	0	0	439	0	535	15	
2	0	0	0	0	439	0	535	15	
3	0	0	0	0	439	0	535	15	
4	0	0	0	0	439	0	535	15	
5	0	0	0	0	439	0	535	15	
6	0	0	0	0	438	0	535	15	
7	0	0	0	0	438	0	536	15	
8	0	0	0	0	438	0	536	15	
9	0	0	0	0	438	0	536	15	
10	0	0	0	0	437	0	536	15	
11	0	0	0	0	438	0	537	15	
12	0	0	0	0	437	0	537	15	
13	0	0	0	0	436	0	537	15	
14	0	0	0	0	436	0	537	15	
15	0	0	0	0	435	0	538	15	
0	0	0	0	0	436	0	538	15	
1	0	0	0	0	435	0	538	15	
2	0	0	0	0	435	0	539	15	
3	0	0	0	0	435	0	538	15	
4	0	0	0	0	435	0	539	15	
5	0	0	0	0	435	0	539	15	
6	0	0	0	0	434	0	540	15	
7	0	0	0	0	435	0	540	15	
8	0	0	0	0	434	0	540	15	
9	0	0	0	0	434	0	540	15	
10	0	0	0	0	434	0	540	15	
11	0	0	0	0	433	0	541	15	
12	0	0	0	0	434	0	541	15	
13	0	0	0	0	434	0	541	15	
14	0	0	0	0	433	0	541	15	
15	0	0	0	0	433	0	542	15	
0	0	0	0	0	433	0	542	15	
1	0	0	0	0	433	0	542	15	
2	0	0	0	0	433	0	543	15	
3	0	0	0	0	433	0	543	15	
4	0	0	0	0	433	0	543	15	
5	0	0	0	0	432	0	544	15	
6	0	0	0	0	433	0	543	15	
7	0	0	0	0	432	0	543	15	
8	0	0	0	0	432	0	544	15	
9	0	0	0	0	432	0	544	15	
10	0	0	0	0	432	0	545	15	
11	0	0	0	0	432	0	545	15	
12	0	0	0	0	432	0	545	15	
13	0	0	0	0	432	0	546	15	
14	0	0	0	0	432	0	545	15	
15	0	0	0	0	432	0	546	15	
0	0	0	0	0	432	0	546	15	
1	0	0	0	0	432	0	547	15	
2	0	0	0	0	431	0	547	15	
3	0	0	0	0	432	0	547	15	
4	0	0	0	0	432	0	547	15	
5	0	0	0	0	432	0	548	15	
6	0	0	0	0	432	0	548	15	
7	0	0	0	0	433	0	549	15	
8	0	0	0	0	433	0	549	15	
9	0	0	0	0	433	0	549	15	
10	0	0	0	0	432	0	549	15	
11	0	0	0	0	433	0	550	15	
12	0	0	0	0	433	0	550	15	
13	0	0	0	0	433	0	550	15	
14	0	0	0	0	433	0	551	15	
15	0	0	0	0	433	0	551	15	
0	0	0	0	0	433	0	551	15	
1	0	0	0	0	433	0	551	15	
2	0	0	0	0	433	0	551	15	
3	0	0	0	0	433	0	552	15	
4	0	0	0	0	433	0	552	15	
5	0	0	0	0	433	0	553	15	
6	0	0	0	0	432	0	553	15	
7	0	0	0	0	433	0	554	15	
8	0	0	0	0	433	0	554	15	
9	0	0	0	0	433	0	554	15	
10	0	0	0	0	433	0	554	15	
11	0	0	0	0	433	0	555	15	
12	0	0	0	0	434	0	556	15	
13	0	0	0	0	433	0	555	15	
14	0	0	0	0	434	0	556	15	
15	0	0	0	0	434	0	556	15	
0	0	0	0	0	434	0	556	15	
1	0	0	0	0	435	0	556	15	
2	0	0	0	0	434	0	556	15	
3	0	0	0	0	434	0	557	15	
4	0	0	0	0	435	0	557	15	
5	0	0	0	0	435	0	557	15	
6	0	0	0	0	435	0	558	15	
7	0	0	0	0	435	0	558	15	
8	0	0	0	0	435	0	558	15	
9	0	0	0	0	435	0	558	15	
10	0	0	0	0	435	0	559	15	
11	0	0	0	0	435	0	559	15	
12	0	0	0	0	435	0	559	15	
13	0	0	0	0	436	0	560	15	
14	0	0	0	0	436	0	560	15	
15	0	0	0	0	435	0	560	15	
0	0	0	0	0	435	0	560	15	
1	0	0	0	0	436	0	560	15	
2	0	0	0	0	436	0	560	15	
3	0	0	0	0	436	0	560	15	
4	0	0	0	0	436	0	560	15	
5	0	0	0	0	436	0	560	15	
6	0	0	0	0	437	0	561	15	
7	0	0	0	0	437	0	560	15	
8	0	0	0	0	437	0	561	15	
9	0	0	0	0	437	0	561	15	
10	0	0	0	0	437	0	561	15	
11	0	0	0	0	438	0	561	15	
12	0	0	0	0	437	0	561	15	
13	0	0	0	0	438	0	561	15	
14	0	0	0	0	438	0	561	15	
15	0	0	0	0	438	0	561	15	
0	0	0	0	0	438	0	561	15	
1	0	0	0	0	438	0	561	15	
2	0	0	0	0	438	0	562	15	
3	0	0	0	0	438	0	562	15	
4	0	0	0	0	439	0	562	15	
5	0	0	0	0	439	0	561	15	
6	0	0	0	0	438	0	562	15	
7	0	0	0	0	438	0	561	15	
8	0	0	0	0	439	0	562	15	
9	0	0	0	0	439	0	562	15	
10	0	0	0	0	439	11	562	15	
11	0	0	0	0	439	27	561	15	
12	0	0	0	0	439	35	562	15	
13	0	0	0	0	439	41	562	15	
14	0	0	0	0	439	48	562	15	
15	0	0	0	0	439	52	563	15	
0	0	0	0	0	439	54	562	15	
1	0	0	0	0	439	57	562	15	
2	0	0	0	0	439	60	562	15	
3	0	0	0	0	439	62	563	15	
4	0	0	0	0	439	65	563	15	
5	0	0	0	0	439	70	563	15	
6	0	0	0	0	439	76	562	15	
7	0	0	0	0	439	86	562	15	
8	0	0	0	0	439	98	562	15	
9	0	0	0	0	439	115	562	15	
10	0	0	0	0	439	135	562	15	
11	0	0	0	0	438	157	562	15	
12	0	0	0	0	439	173	563	15	
13	0	0	0	0	439	192	563	15	
14	0	0	0	0	439	199	563	15	
15	0	0	0	0	438	212	563	15	
0	0	0	0	0	439	220	562	15	
1	0	0	0	0	438	228	562	15	
2	0	0	0	0	439	235	562	15	
3	0	0	0	0	439	240	563	15	
4	0	0	0	0	439	243	563	15	
5	0	0	0	0	439	244	563	15	
6	0	0	0	0	439	242	562	15	
7	0	0	0	0	439	238	562	15	
8	0	0	0	0	439	239	562	15	
9	0	0	0	0	439	243	562	15	
10	0	0	0	0	439	249	562	15	
11	0	0	0	0	439	258	562	15	
12	0	0	0	0	439	268	562	15	
13	0	0	0	0	439	277	563	15	
14	0	0	0	0	439	284	563	15	
15	0	0	0	0	439	301	563	15	
0	0	0	0	0	439	319	563	15	
1	0	0	0	0	439	337	563	15	
2	0	0	0	0	439	350	562	15	
3	0	0	0	0	438	359	561	15	
4	0	0	0	0	438	364	562	15	
5	0	0	0	0	438	367	562	15	
6	0	0	0	0	439	365	562	15	
7	0	0	0	0	439	362	562	15	
8	0	0	0	0	439	359	562	15	
9	0	0	0	0	438	358	561	15	
10	0	0	0	0	438	353	561	15	
11	0	0	0	0	438	346	561	15	
12	0	0	0	0	438	343	561	15	
13	0	0	0	0	438	343	561	15	
14	0	0	0	0	438	344	561	15	
15	0	0	0	0	438	350	561	15	
0	0	0	0	0	438	359	561	15	
1	0	0	0	0	438	372	561	15	
2	0	0	0	0	438	382	560	15	
3	0	0	0	0	438	397	561	15	
4	0	0	0	0	438	414	561	15	
5	0	0	0	0	438	428	561	15	
6	0	0	0	0	438	438	561	15	
7	0	0	0	0	438	446	560	15	
8	0	0	0	0	438	451	560	15	
9	0	0	0	0	438	455	560	15	
10	0	0	0	0	438	451	560	15	
11	0	0	0	0	438	446	560	15	
12	0	0	0	0	438	440	560	15	
13	0	0	0	0	437	433	560	15	
14	0	0	0	0	437	428	559	15	
15	0	0	0	0	438	421	560	15	
0	0	0	0	0	437	420	559	15	
1	0	0	0	0	437	422	559	15	
2	0	0	0	0	437	423	559	15	
3	0	0	0	0	437	425	558	15	
4	0	0	0	0	437	429	559	15	
5	0	0	0	0	437	435	558	15	
6	0	0	0	0	437	441	558	15	
7	0	0	0	0	437	450	558	15	
8	0	0	0	0	436	462	558	15	
9	0	0	0	0	436	474	558	15	
10	0	0	0	0	436	483	558	15	
11	0	0	0	0	435	487	557	15	
12	0	0	0	0	436	486	557	15	
13	0	0	0	0	436	484	557	15	
14	0	0	0	0	435	478	557	15	
15	0	0	0	0	435	467	557	15	
0	0	0	0	0	435	456	557	15	
1	0	0	0	0	435	447	556	15	
2	0	0	0	0	435	438	556	15	
3	0	0	0	0	436	430	556	15	
4	0	0	0	0	435	430	556	15	
5	0	0	0	0	436	434	556	15	
6	0	0	0	0	435	440	556	15	
7	0	0	0	0	435	446	556	15	
8	0	0	0	0	436	455	556	15	
9	0	0	0	0	436	464	556	15	
10	0	0	0	0	437	471	556	15	
11	0	0	0	0	437	479	555	15	
12	0	0	0	0	437	487	555	15	
13	0	0	0	0	438	497	555	15	
14	0	0	0	0	438	499	555	15	
15	0	0	0	0	439	497	554	15	
0	0	0	0	0	440	494	555	15	
1	0	0	0	0	440	487	554	15	
2	0	0	0	0	440	481	554	15	
3	0	0	0	0	441	475	554	15	
4	0	0	0	0	442	467	554	15	
5	0	0	0	0	443	462	554	15	
6	0	0	0	0	443	455	553	15	
7	0	0	0	0	445	447	553	15	
8	0	0	0	0	446	441	553	15	
9	0	0	0	0	446	439	553	15	
10	0	0	0	0	447	438	553	15	
11	0	0	0	0	448	439	552	15	
12	0	0	0	0	450	439	552	15	
13	0	0	0	0	451	442	553	15	
14	0	0	0	0	452	446	552	15	
15	0	0	0	0	454	452	552	15	
0	0	0	0	0	455	460	551	15	
1	0	0	0	0	457	468	552	15	
2	0	0	0	0	459	470	552	15	
3	0	0	0	0	460	475	551	15	
4	0	0	0	0	462	477	551	15	
5	0	0	0	0	464	476	551	15	
6	0	0	0	0	466	472	551	15	
7	0	0	0	0	467	464	551	15	
8	0	0	0	0	469	453	551	15	
9	0	0	0	0	472	443	550	15	
10	0	0	0	0	474	430	551	15	
11	0	0	0	0	476	416	551	15	
12	0	0	0	0	478	404	550	15	
13	0	0	0	0	481	397	550	15	
14	0	0	0	0	482	391	550	15	
15	0	0	0	0	484	390	550	15	
0	0	0	0	0	487	395	550	15	
1	0	0	0	0	489	401	549	15	
2	0	0	0	0	491	409	549	15	
3	0	0	0	0	494	418	549	15	
4	0	0	0	0	496	429	549	15	
5	0	0	0	0	499	443	549	15	
6	0	0	0	0	500	453	549	15	
7	0	0	0	0	502	458	548	15	
8	0	0	0	0	505	460	548	15	
9	0	0	0	0	508	459	548	15	
10	0	0	0	0	511	455	548	15	
11	0	0	0	0	513	448	548	15	
12	0	0	0	0	516	441	548	15	
13	0	0	0	0	519	439	547	15	
14	0	0	0	0	521	434	547	15	
15	0	0	0	0	524	432	547	15	
0	0	0	0	0	526	435	547	15	
1	0	0	0	0	529	441	547	15	
2	0	0	0	0	532	443	547	15	
3	0	0	0	0	535	447	547	15	
4	0	0	0	0	537	451	547	15	
5	0	0	0	0	540	460	546	15	
6	0	0	0	0	543	466	546	15	
7	0	0	0	0	545	472	546	15	
8	0	0	0	0	548	479	546	15	
9	0	0	0	0	551	486	546	15	
10	0	0	0	0	553	484	545	15	
11	0	0	0	0	556	479	545	15	
12	0	0	0	0	559	472	545	15	
13	0	0	0	0	561	464	545	15	
14	0	0	0	0	564	454	545	15	
15	0	0	0	0	566	446	544	15	
0	0	0	0	0	569	431	544	15	
1	0	0	0	0	572	417	544	15	
2	0	0	0	0	574	401	544	15	
3	0	0	0	0	576	383	543	15	
4	0	0	0	0	579	368	543	15	
5	0	0	0	0	581	358	544	15	
6	0	0	0	0	583	347	543	15	
7	0	0	0	0	586	334	543	15	
8	0	0	0	0	589	327	543	15	
9	0	0	0	0	590	326	543	15	
10	0	0	0	0	592	323	542	15	
11	0	0	0	0	595	321	542	15	
12	0	0	0	0	597	318	542	15	
13	0	0	0	0	600	316	542	15	
14	0	0	0	0	601	303	542	15	
15	0	0	0	0	603	288	541	15	
0	0	0	0	0	605	272	541	15	
1	0	0	0	0	607	248	541	15	
2	0	0	0	0	609	216	541	15	
3	0	0	0	0	611	172	541	15	
4	0	0	0	0	613	123	541	15	
5	0	0	0	0	615	79	540	15	
6	0	0	0	0	615	39	540	15	
7	0	0	0	0	617	0	539	15	
8	0	0	0	0	618	0	539	15	
9	0	0	0	0	620	0	539	15	
10	0	0	0	0	621	0	539	15	
11	0	0	0	0	622	0	539	15	
12	0	0	0	0	624	0	538	15	
13	0	0	0	0	625	0	537	15	
14	0	0	0	0	625	0	538	15	
15	0	0	0	0	627	0	538	15	
0	0	0	0	0	627	0	537	15	
1	0	0	0	0	629	0	537	15	
2	0	0	0	0	629	0	537	15	
3	0	0	0	0	630	0	537	15	
4	0	0	0	0	631	0	537	15	
5	0	0	0	0	631	0	536	15	
6	0	0	0	0	632	0	536	15	
7	0	0	0	0	633	0	536	15	
8	0	0	0	0	633	0	536	15	
9	0	0	0	0	634	0	536	15	
10	0	0	0	0	633	0	535	15	
11	0	0	0	0	634	0	536	15	
12	0	0	0	0	634	0	535	15	
13	0	0	0	0	635	0	536	15	
14	0	0	0	0	634	0	535	15	
15	0	0	0	0	634	0	535	15	
0	0	0	0	0	635	0	535	15	
1	0	0	0	0	635	0	535	15	
2	0	0	0	0	634	0	534	15	
3	0	0	0	0	634	0	534	15	
4	0	0	0	0	633	0	534	15	
5	0	0	0	0	633	0	534	15	
6	0	0	0	0	633	0	534	15	
7	0	0	0	0	633	0	533	15	
8	0	0	0	0	633	0	533	15	
9	0	0	0	0	632	0	533	15	
10	0	0	0	0	633	0	533	15	
11	0	0	0	0	632	0	532	15	
12	0	0	0	0	631	0	532	15	
13	0	0	0	0	630	0	532	15	
14	0	0	0	0	630	0	532	15	
15	0	0	0	0	629	0	532	15	
0	0	0	0	0	628	0	532	15	
1	0	0	0	0	627	0	531	15	
2	0	0	0	0	626	0	532	15	
3	0	0	0	0	625	0	532	15	
4	0	0	0	0	624	0	531	15	
5	0	0	0	0	623	0	531	15	
6	0	0	0	0	622	0	531	15	
7	0	0	0	0	621	0	531	15	
8	0	0	0	0	620	0	531	15	
9	0	0	0	0	619	0	531	15	
10	0	0	0	0	617	0	530	15	
11	0	0	0	0	616	0	530	15	
12	0	0	0	0	615	0	530	15	
13	0	0	0	0	613	0	530	15	
14	0	0	0	0	612	0	529	15	
15	0	0	0	0	611	0	529	15	
0	0	0	0	0	610	0	529	15	
1	0	0	0	0	608	0	529	15	
2	0	0	0	0	607	0	529	15	
3	0	0	0	0	606	0	529	15	
4	0	0	0	0	604	0	529	15	
5	0	0	0	0	603	0	528	15	
6	0	0	0	0	601	0	529	15	
7	0	0	0	0	599	0	528	15	
8	0	0	0	0	598	0	528	15	
9	0	0	0	0	596	0	528	15	
10	0	0	0	0	594	0	528	15	
11	0	0	0	0	593	0	528	15	
12	0	0	0	0	591	0	527	15	
13	0	0	0	0	590	0	527	15	
14	0	0	0	0	588	0	527	15	
15	0	0	0	0	586	0	527	15	
0	0	0	0	0	585	0	527	15	
1	0	0	0	0	583	0	527	15	
2	0	0	0	0	582	0	527	15	
3	0	0	0	0	581	0	527	15	
4	0	0	0	0	579	0	527	15	
5	0	0	0	0	577	0	527	15	
6	0	0	0	0	575	0	526	15	
7	0	0	0	0	574	0	526	15	
8	0	0	0	0	572	0	526	15	
9	0	0	0	0	571	0	525	15	
10	0	0	0	0	569	0	526	14	
11	0	0	0	0	568	0	526	15	
12	0	0	0	0	567	0	526	15	
13	0	0	0	0	566	0	526	15	
14	0	0	0	0	563	0	525	15	
15	0	0	0	0	562	0	525	15	
0	0	0	0	0	560	0	525	15	
1	0	0	0	0	559	0	525	15	
2	0	0	0	0	558	0	525	15	
3	0	0	0	0	556	0	525	15	
4	0	0	0	0	555	0	524	15	
5	0	0	0	0	553	0	524	15	
6	0	0	0	0	552	0	524	15	
7	0	0	0	0	550	0	524	15	
8	0	0	0	0	549	0	524	15	
9	0	0	0	0	547	0	524	15	
10	0	0	0	0	545	0	524	15	
11	0	0	0	0	544	0	524	15	
12	0	0	0	0	543	0	524	15	
13	0	0	0	0	542	0	523	15	
14	0	0	0	0	541	0	524	15	
15	0	0	0	0	539	0	524	15	
0	0	0	0	0	538	0	524	15	
1	0	0	0	0	537	0	524	15	
2	0	0	0	0	535	0	523	15	
3	0	0	0	0	535	0	524	15	
4	0	0	0	0	534	0	523	15	
5	0	0	0	0	532	0	523	15	
6	0	0	0	0	531	0	523	15	
7	0	0	0	0	531	0	523	15	
8	0	0	0	0	529	0	523	15	
9	0	0	0	0	528	0	523	15	
10	0	0	0	0	526	0	523	15	
11	0	0	0	0	525	0	523	15	
12	0	0	0	0	524	0	522	15	
13	0	0	0	0	523	0	522	15	
14	0	0	0	0	521	0	523	15	
15	0	0	0	0	520	0	523	15	
0	0	0	0	0	519	0	523	15	
1	0	0	0	0	518	0	522	15	
2	0	0	0	0	517	0	522	15	
3	0	0	0	0	516	0	522	15	
4	0	0	0	0	515	0	522	15	
5	0	0	0	0	514	12	522	15	
6	0	0	0	0	513	33	522	15	
7	0	0	0	0	512	51	522	15	
8	0	0	0	0	511	69	522	15	
9	0	0	0	0	511	90	522	15	
10	0	0	0	0	510	99	522	15	
11	0	0	0	0	508	116	521	15	
12	0	0	0	0	508	127	522	15	
13	0	0	0	0	507	129	522	15	
14	0	0	0	0	507	130	521	15	
15	0	0	0	0	506	131	521	15	
0	0	0	0	0	505	133	522	15	
1	0	0	0	0	505	132	521	15	
2	0	0	0	0	504	131	521	15	
3	0	0	0	0	504	123	521	15	
4	0	0	0	0	504	115	521	15	
5	0	0	0	0	503	123	521	15	
6	0	0	0	0	503	131	521	15	
7	0	0	0	0	502	137	521	15	
8	0	0	0	0	502	147	521	15	
9	0	0	0	0	501	160	521	15	
10	0	0	0	0	502	174	521	15	
11	0	0	0	0	501	192	521	15	
12	0	0	0	0	501	213	520	15	
13	0	0	0	0	500	232	520	15	
14	0	0	0	0	501	246	520	15	
15	0	0	0	0	500	257	520	15	
0	0	0	0	0	500	263	520	15	
1	0	0	0	0	500	268	520	15	
2	0	0	0	0	500	273	520	15	
3	0	0	0	0	500	276	520	15	
4	0	0	0	0	499	280	520	15	
5	0	0	0	0	499	286	520	15	
6	0	0	0	0	499	289	520	15	
7	0	0	0	0	499	285	520	15	
8	0	0	0	0	499	288	519	15	
9	0	0	0	0	499	295	519	15	
10	0	0	0	0	499	306	520	15	
11	0	0	0	0	499	317	519	15	
12	0	0	0	0	499	336	519	15	
13	0	0	0	0	499	358	519	15	
14	0	0	0	0	499	380	519	15	
15	0	0	0	0	499	403	519	15	
0	0	0	0	0	499	424	519	15	
1	0	0	0	0	499	443	519	15	
2	0	0	0	0	499	453	519	15	
3	0	0	0	0	499	463	519	15	
4	0	0	0	0	499	473	519	15	
5	0	0	0	0	499	478	519	15	
6	0	0	0	0	499	480	519	15	
7	0	0	0	0	499	478	519	15	
8	0	0	0	0	499	474	519	15	
9	0	0	0	0	499	470	519	15	
10	0	0	0	0	499	467	519	15	
11	0	0	0	0	500	462	519	15	
12	0	0	0	0	499	460	519	15	
13	0	0	0	0	499	465	519	15	
14	0	0	0	0	500	473	519	15	
15	0	0	0	0	500	484	519	15	
0	0	0	0	0	500	498	519	15	
1	0	0	0	0	499	514	519	15	
2	0	0	0	0	499	528	519	15	
3	0	0	0	0	499	543	519	15	
4	0	0	0	0	500	557	519	15	
5	0	0	0	0	499	571	518	15	
6	0	0	0	0	499	577	519	15	
7	0	0	0	0	500	577	519	15	
8	0	0	0	0	500	575	519	15	
9	0	0	0	0	499	569	519	15	
10	0	0	0	0	500	559	519	15	
11	0	0	0	0	500	546	519	15	
12	0	0	0	0	499	537	519	15	
13	0	0	0	0	500	531	519	15	
14	0	0	0	0	500	527	519	15	
15	0	0	0	0	500	522	519	15	
0	0	0	0	0	500	524	519	15	
1	0	0	0	0	500	531	519	15	
2	0	0	0	0	500	537	519	15	
3	0	0	0	0	500	544	519	15	
4	0	0	0	0	500	553	519	15	
5	0	0	0	0	499	568	519	15	
6	0	0	0	0	499	586	519	15	
7	0	0	0	0	500	604	519	15	
8	0	0	0	0	500	626	519	15	
9	0	0	0	0	500	647	519	15	
10	0	0	0	0	499	662	519	15	
11	0	0	0	0	499	672	519	15	
12	0	0	0	0	499	679	519	14	
13	0	0	0	0	499	681	519	15	
14	0	0	0	0	499	684	519	15	
15	0	0	0	0	499	684	520	15	
0	0	0	0	0	499	681	520	15	
1	0	0	0	0	498	679	520	15	
2	0	0	0	0	498	677	520	15	
3	0	0	0	0	498	673	520	15	
4	0	0	0	0	498	670	520	15	
5	0	0	0	0	498	672	520	15	
6	0	0	0	0	498	677	520	15	
7	0	0	0	0	498	682	521	15	
8	0	0	0	0	498	691	520	15	
9	0	0	0	0	498	701	521	15	
10	0	0	0	0	498	712	521	15	
11	0	0	0	0	498	727	521	15	
12	0	0	0	0	499	744	521	15	
13	0	0	0	0	499	762	521	15	
14	0	0	0	0	498	773	522	15	
15	0	0	0	0	499	783	521	15	
0	0	0	0	0	498	792	521	15	
1	0	0	0	0	499	799	522	15	
2	0	0	0	0	499	801	522	15	
3	0	0	0	0	499	801	522	15	
4	0	0	0	0	499	801	522	15	
5	0	0	0	0	499	803	522	15	
6	0	0	0	0	499	801	522	15	
7	0	0	0	0	499	798	523	15	
8	0	0	0	0	499	801	523	15	
9	0	0	0	0	500	811	523	15	
10	0	0	0	0	499	821	523	15	
11	0	0	0	0	500	830	523	15	
12	0	0	0	0	500	840	523	15	
13	0	0	0	0	500	850	523	15	
14	0	0	0	0	501	857	524	15	
15	0	0	0	0	501	871	523	15	
0	0	0	0	0	500	883	523	15	
1	0	0	0	0	502	896	524	15	
2	0	0	0	0	502	908	524	15	
3	0	0	0	0	501	916	524	15	
4	0	0	0	0	501	923	524	15	
5	0	0	0	0	502	926	524	15	
6	0	0	0	0	503	926	524	15	
7	0	0	0	0	503	920	524	15	
8	0	0	0	0	503	912	524	15	
9	0	0	0	0	503	908	525	15	
10	0	0	0	0	503	899	524	15	
11	0	0	0	0	504	892	525	15	
12	0	0	0	0	503	885	525	15	
13	0	0	0	0	503	883	525	15	
14	0	0	0	0	504	879	525	15	
15	0	0	0	0	504	876	525	15	
0	0	0	0	0	505	885	525	15	
1	0	0	0	0	505	897	526	15	
2	0	0	0	0	505	908	526	15	
3	0	0	0	0	505	918	525	15	
4	0	0	0	0	506	930	525	15	
5	0	0	0	0	506	944	526	15	
6	0	0	0	0	506	949	526	15	
7	0	0	0	0	505	951	526	15	
8	0	0	0	0	506	949	527	15	
9	0	0	0	0	507	945	527	15	
10	0	0	0	0	507	938	526	15	
11	0	0	0	0	507	929	526	15	
12	0	0	0	0	507	921	526	15	
13	0	0	0	0	507	913	526	15	
14	0	0	0	0	507	904	526	15	
15	0	0	0	0	508	893	527	15	
0	0	0	0	0	508	883	527	15	
1	0	0	0	0	508	880	527	15	
2	0	0	0	0	508	883	527	15	
3	0	0	0	0	508	886	527	15	
4	0	0	0	0	508	891	527	15	
5	0	0	0	0	509	897	527	15	
6	0	0	0	0	509	905	527	15	
7	0	0	0	0	509	914	528	15	
8	0	0	0	0	509	926	528	15	
9	0	0	0	0	510	940	528	15	
10	0	0	0	0	510	948	528	15	
11	0	0	0	0	510	957	528	15	
12	0	0	0	0	510	962	528	15	
13	0	0	0	0	510	962	529	15	
14	0	0	0	0	511	956	528	15	
15	0	0	0	0	511	948	528	15	
0	0	0	0	0	511	939	528	15	
1	0	0	0	0	512	934	529	15	
2	0	0	0	0	512	927	529	15	
3	0	0	0	0	512	915	529	15	
4	0	0	0	0	512	904	529	15	
5	0	0	0	0	512	898	529	15	
6	0	0	0	0	512	895	529	15	
7	0	0	0	0	513	899	530	15	
8	0	0	0	0	513	908	530	15	
9	0	0	0	0	513	921	530	15	
10	0	0	0	0	513	934	530	15	
11	0	0	0	0	513	953	530	15	
12	0	0	0	0	513	969	531	15	
13	0	0	0	0	514	986	531	15	
14	0	0	0	0	514	999	531	15	
15	0	0	0	0	515	1008	531	15	
0	0	0	0	0	515	1016	531	15	
1	0	0	0	0	515	1019	531	15	
2	0	0	0	0	515	1021	531	15	
3	0	0	0	0	515	1019	531	15	
4	0	0	0	0	515	1018	532	15	
5	0	0	0	0	515	1016	532	15	
6	0	0	0	0	515	1015	531	15	
7	0	0	0	0	515	1011	532	15	
8	0	0	0	0	515	1006	532	15	
9	0	0	0	0	515	1004	532	15	
10	0	0	0	0	516	1002	532	15	
11	0	0	0	0	516	1007	532	15	
12	0	0	0	0	516	1014	534	15	
13	0	0	0	0	517	1020	534	15	
14	0	0	0	0	516	1022	534	15	
15	0	0	0	0	516	1022	534	15	
0	0	0	0	0	516	1022	533	15	
1	0	0	0	0	516	1022	533	15	
2	0	0	0	0	516	1022	533	15	
3	0	0	0	0	516	1022	534	15	
4	0	0	0	0	517	1022	534	15	
5	0	0	0	0	517	1022	534	15	
6	0	0	0	0	516	1022	534	15	
7	0	0	0	0	517	1022	534	15	
8	0	0	0	0	517	1022	534	15	
9	0	0	0	0	516	1022	534	15	
10	0	0	0	0	517	1022	535	15	
11	0	0	0	0	516	1022	535	15	
12	0	0	0	0	516	1010	534	15	
13	0	0	0	0	516	997	534	15	
14	0	0	0	0	516	990	535	15	
15	0	0	0	0	516	985	535	15	
0	0	0	0	0	516	987	535	15	
1	0	0	0	0	516	992	535	15	
2	0	0	0	0	516	999	535	15	
3	0	0	0	0	515	1009	535	15	
4	0	0	0	0	515	1021	535	15	
5	0	0	0	0	515	1022	536	15	
6	0	0	0	0	515	1022	535	15	
7	0	0	0	0	515	1022	535	15	
8	0	0	0	0	514	1022	535	15	
9	0	0	0	0	514	1022	535	15	
10	0	0	0	0	513	1022	535	15	
11	0	0	0	0	514	1022	535	15	
12	0	0	0	0	513	1021	535	15	
13	0	0	0	0	512	1016	535	15	
14	0	0	0	0	512	1005	536	15	
15	0	0	0	0	512	996	536	15	
0	0	0	0	0	511	988	536	15	
1	0	0	0	0	511	980	535	15	
2	0	0	0	0	511	975	535	15	
3	0	0	0	0	511	971	535	15	
4	0	0	0	0	510	974	536	15	
5	0	0	0	0	509	983	535	15	
6	0	0	0	0	509	992	536	15	
7	0	0	0	0	509	1004	536	15	
8	0	0	0	0	508	1016	535	15	
9	0	0	0	0	508	1022	535	15	
10	0	0	0	0	507	1022	536	15	
11	0	0	0	0	507	1022	535	15	
12	0	0	0	0	506	1022	535	15	
13	0	0	0	0	506	1022	536	15	
14	0	0	0	0	505	1022	536	15	
15	0	0	0	0	505	1022	535	15	
0	0	0	0	0	504	1022	535	15	
1	0	0	0	0	504	1022	535	15	
2	0	0	0	0	503	1022	535	15	
3	0	0	0	0	503	1022	536	15	
4	0	0	0	0	501	1017	535	15	
5	0	0	0	0	501	1015	535	15	
6	0	0	0	0	499	1015	535	15	
7	0	0	0	0	499	1015	535	15	
8	0	0	0	0	499	1019	535	15	
9	0	0	0	0	497	1022	534	15	
10	0	0	0	0	496	1022	536	15	
11	0	0	0	0	496	1022	535	15	
12	0	0	0	0	494	1022	535	15	
13	0	0	0	0	494	1022	535	15	
14	0	0	0	0	492	1022	535	15	
15	0	0	0	0	492	1022	534	15	
0	0	0	0	0	491	1022	534	15	
1	0	0	0	0	489	1022	534	15	
2	0	0	0	0	489	1022	534	15	
3	0	0	0	0	487	1022	534	15	
4	0	0	0	0	486	1022	535	15	
5	0	0	0	0	485	1022	534	15	
6	0	0	0	0	483	1022	534	15	
7	0	0	0	0	482	1022	534	15	
8	0	0	0	0	481	1022	534	15	
9	0	0	0	0	479	1022	534	15	
10	0	0	0	0	478	1022	534	15	
11	0	0	0	0	477	1022	534	15	
12	0	0	0	0	475	1022	534	15	
13	0	0	0	0	473	1022	533	15	
14	0	0	0	0	472	1022	533	15	
15	0	0	0	0	470	1022	534	15	
0	0	0	0	0	468	1022	534	15	
1	0	0	0	0	467	1022	533	15	
2	0	0	0	0	464	1022	533	15	
3	0	0	0	0	462	1022	533	15	
4	0	0	0	0	460	1022	533	15	
5	0	0	0	0	457	1022	533	15	
6	0	0	0	0	456	1022	533	15	
7	0	0	0	0	453	1022	532	15	
8	0	0	0	0	451	1022	533	15	
9	0	0	0	0	449	1022	533	15	
10	0	0	0	0	446	1022	532	15	
11	0	0	0	0	444	1022	532	15	
12	0	0	0	0	441	1022	533	15	
13	0	0	0	0	438	1022	533	15	
14	0	0	0	0	435	1022	532	15	
15	0	0	0	0	432	1022	532	15	
0	0	0	0	0	430	1022	531	15	
1	0	0	0	0	427	1022	532	15	
2	0	0	0	0	424	1022	532	15	
3	0	0	0	0	421	1022	532	15	
4	0	0	0	0	419	1022	531	15	
5	0	0	0	0	416	1022	531	15	
6	0	0	0	0	414	1022	532	15	
7	0	0	0	0	412	1022	532	15	
8	0	0	0	0	408	1022	532	15	
9	0	0	0	0	406	1022	531	15	
10	0	0	0	0	404	1022	531	15	
11	0	0	0	0	402	1022	532	15	
12	0	0	0	0	399	1022	532	15	
13	0	0	0	0	398	1022	532	15	
14	0	0	0	0	395	1022	531	15	
15	0	0	0	0	393	1022	531	15	
0	0	0	0	0	390	1022	531	15	
1	0	0	0	0	389	1022	531	15	
2	0	0	0	0	387	1022	531	15	
3	0	0	0	0	385	1022	531	15	
4	0	0	0	0	384	1022	531	15	
5	0	0	0	0	383	1022	531	15	
6	0	0	0	0	381	1022	531	15	
7	0	0	0	0	380	1022	531	15	
8	0	0	0	0	379	1022	531	15	
9	0	0	0	0	377	1022	532	15	
10	0	0	0	0	377	1022	531	15	
11	0	0	0	0	376	1022	531	15	
12	0	0	0	0	376	1022	531	15	
13	0	0	0	0	375	1022	531	15	
14	0	0	0	0	375	1022	531	15	
15	0	0	0	0	375	1022	531	15	
0	0	0	0	0	374	1022	531	15	
1	0	0	0	0	374	1022	532	15	
2	0	0	0	0	374	1022	531	15	
3	0	0	0	0	374	1022	531	15	
4	0	0	0	0	374	1022	531	15	
5	0	0	0	0	375	1022	531	15	
6	0	0	0	0	376	1022	532	15	
7	0	0	0	0	376	1022	532	15	
8	0	0	0	0	377	1022	531	15	
9	0	0	0	0	378	1022	531	15	
10	0	0	0	0	379	1022	532	15	
11	0	0	0	0	379	1022	532	15	
12	0	0	0	0	381	1022	532	15	
13	0	0	0	0	383	1022	531	15	
14	0	0	0	0	384	1022	531	15	
15	0	0	0	0	386	1022	532	15	
0	0	0	0	0	388	1022	532	15	
1	0	0	0	0	390	1022	532	15	
2	0	0	0	0	392	1022	532	15	
3	0	0	0	0	393	1022	532	15	
4	0	0	0	0	395	1022	532	15	
5	0	0	0	0	398	1022	533	15	
6	0	0	0	0	400	1022	533	15	
7	0	0	0	0	402	1022	532	15	
8	0	0	0	0	404	1022	533	15	
9	0	0	0	0	407	1022	534	15	
10	0	0	0	0	409	1022	534	15	
11	0	0	0	0	412	1022	534	15	
12	0	0	0	0	414	1022	534	15	
13	0	0	0	0	416	1022	534	15	
14	0	0	0	0	419	1022	534	15	
15	0	0	0	0	421	1022	534	15	
0	0	0	0	0	423	1022	534	15	
1	0	0	0	0	427	1022	535	15	
2	0	0	0	0	429	1022	535	15	
3	0	0	0	0	432	1022	535	15	
4	0	0	0	0	434	1022	535	15	
5	0	0	0	0	437	1022	534	15	
6	0	0	0	0	440	1022	535	15	
7	0	0	0	0	443	1022	535	15	
8	0	0	0	0	446	1022	535	15	
9	0	0	0	0	448	1022	535	15	
10	0	0	0	0	451	1022	535	15	
11	0	0	0	0	454	1022	535	15	
12	0	0	0	0	457	1022	535	15	
13	0	0	0	0	460	1022	536	15	
14	0	0	0	0	463	1022	536	15	
15	0	0	0	0	465	1022	536	15	
0	0	0	0	0	469	1022	537	15	
1	0	0	0	0	472	1022	536	15	
2	0	0	0	0	475	1022	536	15	
3	0	0	0	0	478	1022	536	15	
4	0	0	0	0	481	1022	536	15	
5	0	0	0	0	484	1022	537	15	
6	0	0	0	0	487	1022	537	15	
7	0	0	0	0	490	1022	537	15	
8	0	0	0	0	493	1022	537	15	
9	0	0	0	0	496	1022	537	15	
10	0	0	0	0	499	1012	537	15	
11	0	0	0	0	502	1004	537	15	
12	0	0	0	0	505	991	537	15	
13	0	0	0	0	508	984	537	15	
14	0	0	0	0	511	976	537	15	
15	0	0	0	0	515	969	538	15	
0	0	0	0	0	518	963	539	15	
1	0	0	0	0	520	964	538	15	
2	0	0	0	0	524	959	538	15	
3	0	0	0	0	527	960	538	15	
4	0	0	0	0	530	964	538	15	
5	0	0	0	0	532	974	538	15	
6	0	0	0	0	535	983	538	15	
7	0	0	0	0	538	997	538	15	
8	0	0	0	0	541	1009	538	15	
9	0	0	0	0	544	1022	538	15	
10	0	0	0	0	546	1022	539	15	
11	0	0	0	0	550	1022	539	15	
12	0	0	0	0	552	1022	539	15	
13	0	0	0	0	555	1022	539	15	
14	0	0	0	0	558	1022	539	15	
15	0	0	0	0	560	1022	538	15	
0	0	0	0	0	563	1013	539	15	
1	0	0	0	0	565	1003	539	15	
2	0	0	0	0	568	989	539	15	
3	0	0	0	0	570	982	539	15	
4	0	0	0	0	573	973	538	15	
5	0	0	0	0	575	974	538	15	
6	0	0	0	0	578	975	539	15	
7	0	0	0	0	580	979	539	15	
8	0	0	0	0	582	981	539	15	
9	0	0	0	0	585	985	539	15	
10	0	0	0	0	588	987	538	15	
11	0	0	0	0	590	1001	538	15	
12	0	0	0	0	591	1009	538	15	
13	0	0	0	0	594	1022	539	15	
14	0	0	0	0	596	1022	539	15	
15	0	0	0	0	598	1022	539	15	
0	0	0	0	0	600	1022	538	15	
1	0	0	0	0	603	1022	538	15	
2	0	0	0	0	604	1022	538	15	
3	0	0	0	0	606	1021	539	15	
4	0	0	0	0	608	1007	539	15	
5	0	0	0	0	610	990	538	15	
6	0	0	0	0	612	966	538	15	
7	0	0	0	0	614	951	539	15	
8	0	0	0	0	615	928	539	15	
9	0	0	0	0	617	911	539	15	
10	0	0	0	0	619	899	539	15	
11	0	0	0	0	620	892	538	15	
12	0	0	0	0	622	891	539	15	
13	0	0	0	0	624	892	539	15	
14	0	0	0	0	625	898	539	15	
15	0	0	0	0	626	905	539	15	
0	0	0	0	0	627	911	538	15	
1	0	0	0	0	629	921	539	15	
2	0	0	0	0	629	922	539	15	
3	0	0	0	0	631	924	539	15	
4	0	0	0	0	632	920	539	15	
5	0	0	0	0	632	909	540	15	
6	0	0	0	0	633	898	540	15	
7	0	0	0	0	634	888	540	15	
8	0	0	0	0	634	874	540	15	
9	0	0	0	0	636	866	540	15	
10	0	0	0	0	636	849	540	15	
11	0	0	0	0	638	832	540	15	
12	0	0	0	0	638	816	540	15	
13	0	0	0	0	639	818	540	15	
14	0	0	0	0	639	819	540	15	
15	0	0	0	0	639	819	540	15	
0	0	0	0	0	640	824	541	15	
1	0	0	0	0	639	833	540	15	
2	0	0	0	0	640	842	541	15	
3	0	0	0	0	640	851	541	15	
4	0	0	0	0	640	855	541	15	
5	0	0	0	0	640	867	541	15	
6	0	0	0	0	640	864	542	15	
7	0	0	0	0	640	860	542	15	
8	0	0	0	0	640	855	542	15	
9	0	0	0	0	639	846	542	15	
10	0	0	0	0	640	835	542	15	
11	0	0	0	0	639	826	542	15	
12	0	0	0	0	639	816	543	15	
13	0	0	0	0	639	814	543	15	
14	0	0	0	0	639	806	543	15	
15	0	0	0	0	639	804	543	15	
0	0	0	0	0	638	800	543	15	
1	0	0	0	0	637	801	543	15	
2	0	0	0	0	636	803	543	15	
3	0	0	0	0	636	806	543	15	
4	0	0	0	0	636	807	544	15	
5	0	0	0	0	635	812	544	15	
6	0	0	0	0	633	823	544	15	
7	0	0	0	0	632	834	544	15	
8	0	0	0	0	631	845	544	15	
9	0	0	0	0	631	862	544	15	
10	0	0	0	0	629	868	545	15	
11	0	0	0	0	628	871	545	15	
12	0	0	0	0	627	868	544	15	
13	0	0	0	0	626	857	545	15	
14	0	0	0	0	625	847	546	15	
15	0	0	0	0	624	838	545	15	
0	0	0	0	0	622	828	545	15	
1	0	0	0	0	621	822	545	15	
2	0	0	0	0	620	815	545	15	
3	0	0	0	0	619	805	545	15	
4	0	0	0	0	617	798	545	15	
5	0	0	0	0	615	793	546	15	
6	0	0	0	0	615	788	546	15	
7	0	0	0	0	611	788	546	15	
8	0	0	0	0	611	792	546	15	
9	0	0	0	0	608	801	546	15	
10	0	0	0	0	607	810	546	15	
11	0	0	0	0	605	820	547	15	
12	0	0	0	0	604	827	547	15	
13	0	0	0	0	602	834	547	15	
14	0	0	0	0	600	837	547	15	
15	0	0	0	0	598	841	547	15	
0	0	0	0	0	596	840	547	15	
1	0	0	0	0	595	838	547	15	
2	0	0	0	0	593	832	547	15	
3	0	0	0	0	591	823	547	15	
4	0	0	0	0	589	812	547	15	
5	0	0	0	0	587	799	547	15	
6	0	0	0	0	585	787	547	15	
7	0	0	0	0	583	777	547	15	
8	0	0	0	0	582	771	547	15	
9	0	0	0	0	580	768	548	15	
10	0	0	0	0	577	761	548	15	
11	0	0	0	0	575	757	548	15	
12	0	0	0	0	574	753	548	15	
13	0	0	0	0	572	752	548	15	
14	0	0	0	0	571	752	548	15	
15	0	0	0	0	570	756	548	15	
0	0	0	0	0	568	766	548	15	
1	0	0	0	0	567	779	549	15	
2	0	0	0	0	566	785	548	15	
3	0	0	0	0	565	790	549	15	
4	0	0	0	0	564	792	550	15	
5	0	0	0	0	564	792	549	15	
6	0	0	0	0	563	786	549	15	
7	0	0	0	0	564	776	550	15	
8	0	0	0	0	563	767	550	15	
9	0	0	0	0	562	759	550	15	
10	0	0	0	0	563	750	550	15	
11	0	0	0	0	563	736	550	15	
12	0	0	0	0	563	722	550	15	
13	0	0	0	0	563	710	550	15	
14	0	0	0	0	564	699	551	15	
15	0	0	0	0	564	690	551	15	
0	0	0	0	0	566	683	551	15	
1	0	0	0	0	566	679	551	15	
2	0	0	0	0	567	682	551	15	
3	0	0	0	0	568	688	551	15	
4	0	0	0	0	569	691	552	15	
5	0	0	0	0	570	706	551	15	
6	0	0	0	0	571	710	552	15	
7	0	0	0	0	572	712	552	15	
8	0	0	0	0	574	704	553	15	
9	0	0	0	0	575	699	553	15	
10	0	0	0	0	577	691	553	15	
11	0	0	0	0	579	688	553	15	
12	0	0	0	0	580	679	553	15	
13	0	0	0	0	583	671	554	15	
14	0	0	0	0	584	657	554	15	
15	0	0	0	0	585	647	554	15	
0	0	0	0	0	588	632	555	15	
1	0	0	0	0	590	635	555	15	
2	0	0	0	0	592	639	555	15	
3	0	0	0	0	595	648	555	15	
4	0	0	0	0	598	647	555	15	
5	0	0	0	0	600	655	556	15	
6	0	0	0	0	603	656	556	15	
7	0	0	0	0	606	664	556	15	
8	0	0	0	0	608	668	556	15	
9	0	0	0	0	610	683	557	15	
10	0	0	0	0	614	683	557	15	
11	0	0	0	0	616	684	557	15	
12	0	0	0	0	619	679	558	15	
13	0	0	0	0	621	679	558	15	
14	0	0	0	0	625	671	558	15	
15	0	0	0	0	627	668	559	15	
0	0	0	0	0	630	655	559	15	
1	0	0	0	0	633	655	559	15	
2	0	0	0	0	636	649	560	15	
3	0	0	0	0	638	646	560	15	
4	0	0	0	0	641	638	560	15	
5	0	0	0	0	644	635	560	15	
6	0	0	0	0	647	629	561	15	
7	0	0	0	0	649	628	561	15	
8	0	0	0	0	652	624	562	15	
9	0	0	0	0	655	625	561	15	
10	0	0	0	0	657	627	562	15	
11	0	0	0	0	659	639	563	15	
12	0	0	0	0	662	647	563	15	
13	0	0	0	0	665	664	563	15	
14	0	0	0	0	667	669	563	15	
15	0	0	0	0	669	675	564	15	
0	0	0	0	0	671	671	564	15	
1	0	0	0	0	674	664	564	15	
2	0	0	0	0	675	652	565	15	
3	0	0	0	0	678	637	565	15	
4	0	0	0	0	680	618	566	15	
5	0	0	0	0	683	604	566	15	
6	0	0	0	0	684	585	566	15	
7	0	0	0	0	687	573	567	15	
8	0	0	0	0	688	555	567	15	
9	0	0	0	0	691	542	567	15	
10	0	0	0	0	691	527	568	15	
11	0	0	0	0	694	518	568	15	
12	0	0	0	0	696	523	568	15	
13	0	0	0	0	697	536	568	15	
14	0	0	0	0	698	536	568	15	
15	0	0	0	0	700	537	569	15	
0	0	0	0	0	701	536	569	15	
1	0	0	0	0	703	545	569	15	
2	0	0	0	0	704	545	570	15	
3	0	0	0	0	705	552	570	15	
4	0	0	0	0	707	551	571	15	
5	0	0	0	0	707	553	571	15	
6	0	0	0	0	709	547	571	15	
7	0	0	0	0	710	553	572	15	
8	0	0	0	0	711	548	572	15	
9	0	0	0	0	711	537	572	15	
10	0	0	0	0	712	528	572	15	
11	0	0	0	0	713	515	573	15	
12	0	0	0	0	714	502	573	15	
13	0	0	0	0	715	500	574	15	
14	0	0	0	0	716	499	574	15	
15	0	0	0	0	717	497	574	15	
0	0	0	0	0	718	493	575	15	
1	0	0	0	0	718	493	575	15	
2	0	0	0	0	719	489	575	15	
3	0	0	0	0	719	496	575	15	
4	0	0	0	0	719	502	576	15	
5	0	0	0	0	721	515	576	15	
6	0	0	0	0	721	515	577	15	
7	0	0	0	0	721	516	577	15	
8	0	0	0	0	722	510	577	15	
9	0	0	0	0	722	503	578	15	
10	0	0	0	0	722	492	578	15	
11	0	0	0	0	722	482	578	15	
12	0	0	0	0	722	467	579	15	
13	0	0	0	0	722	456	579	15	
14	0	0	0	0	722	441	579	15	
15	0	0	0	0	722	425	580	15	
0	0	0	0	0	722	414	580	15	
1	0	0	0	0	721	408	580	15	
2	0	0	0	0	721	399	580	15	
3	0	0	0	0	721	396	581	15	
4	0	0	0	0	720	391	582	15	
5	0	0	0	0	719	396	582	15	
6	0	0	0	0	719	397	582	15	
7	0	0	0	0	718	404	583	15	
8	0	0	0	0	717	409	583	15	
9	0	0	0	0	717	421	583	15	
10	0	0	0	0	716	423	583	15	
11	0	0	0	0	715	435	583	15	
12	0	0	0	0	714	440	583	15	
13	0	0	0	0	713	443	584	15	
14	0	0	0	0	712	439	585	15	
15	0	0	0	0	711	435	585	15	
0	0	0	0	0	710	438	586	15	
1	0	0	0	0	709	437	586	15	
2	0	0	0	0	706	429	586	15	
3	0	0	0	0	706	421	587	15	
4	0	0	0	0	704	410	587	15	
5	0	0	0	0	703	409	587	15	
6	0	0	0	0	702	406	588	15	
7	0	0	0	0	700	411	588	15	
8	0	0	0	0	699	415	588	15	
9	0	0	0	0	697	428	588	15	
10	0	0	0	0	696	436	588	15	
11	0	0	0	0	695	450	589	15	
12	0	0	0	0	693	459	590	15	
13	0	0	0	0	691	477	590	15	
14	0	0	0	0	690	482	590	15	
15	0	0	0	0	688	481	590	15	
0	0	0	0	0	687	480	590	15	
1	0	0	0	0	685	474	591	15	
2	0	0	0	0	684	465	591	15	
3	0	0	0	0	682	450	591	15	
4	0	0	0	0	680	432	591	15	
5	0	0	0	0	679	431	592	15	
6	0	0	0	0	677	422	592	15	
7	0	0	0	0	675	417	592	15	
8	0	0	0	0	673	404	592	15	
9	0	0	0	0	672	401	593	15	
10	0	0	0	0	670	391	593	15	
11	0	0	0	0	669	388	593	15	
12	0	0	0	0	668	383	594	15	
13	0	0	0	0	666	390	594	15	
14	0	0	0	0	664	397	594	15	
15	0	0	0	0	663	408	594	15	
0	0	0	0	0	661	420	595	15	
1	0	0	0	0	661	435	595	15	
2	0	0	0	0	659	438	595	15	
3	0	0	0	0	657	443	595	15	
4	0	0	0	0	656	440	595	15	
5	0	0	0	0	655	432	596	15	
6	0	0	0	0	654	425	596	15	
7	0	0	0	0	652	412	596	15	
8	0	0	0	0	651	393	597	15	
9	0	0	0	0	650	380	597	15	
10	0	0	0	0	649	365	598	15	
11	0	0	0	0	647	352	598	15	
12	0	0	0	0	646	344	598	15	
13	0	0	0	0	645	343	598	15	
14	0	0	0	0	644	342	598	15	
15	0	0	0	0	643	346	598	15	
0	0	0	0	0	642	353	599	15	
1	0	0	0	0	640	364	599	15	
2	0	0	0	0	640	371	599	15	
3	0	0	0	0	639	380	599	15	
4	0	0	0	0	638	392	600	15	
5	0	0	0	0	638	406	600	15	
6	0	0	0	0	636	414	600	15	
7	0	0	0	0	636	421	600	15	
8	0	0	0	0	635	425	600	15	
9	0	0	0	0	634	430	601	15	
10	0	0	0	0	633	429	601	15	
11	0	0	0	0	632	431	601	15	
12	0	0	0	0	632	427	601	15	
13	0	0	0	0	631	423	602	15	
14	0	0	0	0	631	415	602	15	
15	0	0	0	0	630	403	602	15	
0	0	0	0	0	629	398	603	15	
1	0	0	0	0	629	399	603	15	
2	0	0	0	0	629	401	602	15	
3	0	0	0	0	628	406	603	15	
4	0	0	0	0	628	415	603	15	
5	0	0	0	0	627	424	604	15	
6	0	0	0	0	627	430	604	15	
7	0	0	0	0	627	441	604	15	
8	0	0	0	0	627	453	604	15	
9	0	0	0	0	626	466	604	15	
10	0	0	0	0	626	476	604	15	
11	0	0	0	0	625	481	605	15	
12	0	0	0	0	625	483	605	15	
13	0	0	0	0	625	484	605	15	
14	0	0	0	0	625	479	605	15	
15	0	0	0	0	625	471	606	15	
0	0	0	0	0	624	463	606	15	
1	0	0	0	0	624	456	606	15	
2	0	0	0	0	624	448	606	15	
3	0	0	0	0	624	442	606	15	
4	0	0	0	0	624	428	606	15	
5	0	0	0	0	624	418	606	15	
6	0	0	0	0	624	412	607	15	
7	0	0	0	0	624	402	607	15	
8	0	0	0	0	624	409	607	15	
9	0	0	0	0	623	421	607	15	
10	0	0	0	0	623	430	607	15	
11	0	0	0	0	623	443	607	15	
12	0	0	0	0	622	456	607	15	
13	0	0	0	0	622	472	608	15	
14	0	0	0	0	623	480	608	15	
15	0	0	0	0	623	483	608	15	
0	0	0	0	0	622	480	608	15	
1	0	0	0	0	622	473	608	15	
2	0	0	0	0	622	463	608	15	
3	0	0	0	0	622	448	608	15	
4	0	0	0	0	623	432	608	15	
5	0	0	0	0	622	417	609	15	
6	0	0	0	0	622	401	609	15	
7	0	0	0	0	622	389	609	15	
8	0	0	0	0	621	374	609	15	
9	0	0	0	0	621	372	609	15	
10	0	0	0	0	621	368	609	15	
11	0	0	0	0	621	364	609	15	
12	0	0	0	0	620	365	609	15	
13	0	0	0	0	620	369	609	15	
14	0	0	0	0	621	377	609	15	
15	0	0	0	0	620	388	609	15	
0	0	0	0	0	621	400	610	15	
1	0	0	0	0	620	416	610	15	
2	0	0	0	0	620	429	610	15	
3	0	0	0	0	620	435	610	15	
4	0	0	0	0	619	441	610	15	
5	0	0	0	0	619	443	610	15	
6	0	0	0	0	619	439	610	15	
7	0	0	0	0	618	432	611	15	
8	0	0	0	0	618	423	610	15	
9	0	0	0	0	618	412	610	15	
10	0	0	0	0	617	404	611	15	
11	0	0	0	0	617	396	611	15	
12	0	0	0	0	616	388	611	15	
13	0	0	0	0	616	384	611	15	
14	0	0	0	0	615	381	611	15	
15	0	0	0	0	614	383	611	15	
0	0	0	0	0	614	389	611	15	
1	0	0	0	0	614	395	611	15	
2	0	0	0	0	612	399	611	15	
3	0	0	0	0	612	402	611	15	
4	0	0	0	0	612	406	610	15	
5	0	0	0	0	611	414	611	15	
6	0	0	0	0	611	418	611	15	
7	0	0	0	0	610	419	611	15	
8	0	0	0	0	609	417	611	15	
9	0	0	0	0	609	414	611	15	
10	0	0	0	0	608	412	610	15	
11	0	0	0	0	608	404	611	15	
12	0	0	0	0	607	391	611	15	
13	0	0	0	0	606	375	611	15	
14	0	0	0	0	605	352	611	15	
15	0	0	0	0	604	331	611	15	
0	0	0	0	0	604	304	611	15	
1	0	0	0	0	603	294	611	15	
2	0	0	0	0	602	285	610	15	
3	0	0	0	0	601	284	611	15	
4	0	0	0	0	601	284	611	15	
5	0	0	0	0	600	291	611	15	
6	0	0	0	0	599	295	611	15	
7	0	0	0	0	598	305	611	15	
8	0	0	0	0	597	310	611	15	
9	0	0	0	0	596	320	610	15	
10	0	0	0	0	595	323	611	15	
11	0	0	0	0	594	325	611	15	
12	0	0	0	0	593	316	611	15	
13	0	0	0	0	591	310	610	15	
14	0	0	0	0	590	295	611	15	
15	0	0	0	0	589	285	611	15	
0	0	0	0	0	588	271	610	15	
1	0	0	0	0	587	260	611	15	
2	0	0	0	0	585	246	610	15	
3	0	0	0	0	585	235	611	15	
4	0	0	0	0	583	223	611	15	
5	0	0	0	0	582	222	611	15	
6	0	0	0	0	581	219	611	15	
7	0	0	0	0	579	222	610	15	
8	0	0	0	0	579	220	611	15	
9	0	0	0	0	577	222	611	15	
10	0	0	0	0	576	218	611	15	
11	0	0	0	0	574	233	611	15	
12	0	0	0	0	573	243	610	15	
13	0	0	0	0	571	261	611	15	
14	0	0	0	0	571	267	610	15	
15	0	0	0	0	569	273	611	15	
0	0	0	0	0	568	271	611	15	
1	0	0	0	0	566	272	610	15	
2	0	0	0	0	565	267	611	15	
3	0	0	0	0	563	270	611	15	
4	0	0	0	0	562	269	611	15	
5	0	0	0	0	560	271	610	15	
6	0	0	0	0	559	269	610	15	
7	0	0	0	0	557	267	611	15	
8	0	0	0	0	556	257	610	15	
9	0	0	0	0	554	256	610	15	
10	0	0	0	0	553	250	610	15	
11	0	0	0	0	551	245	610	15	
12	0	0	0	0	550	243	610	15	
13	0	0	0	0	548	249	610	15	
14	0	0	0	0	546	257	610	15	
15	0	0	0	0	545	271	610	15	
0	0	0	0	0	543	275	610	15	
1	0	0	0	0	542	284	611	15	
2	0	0	0	0	540	284	611	15	
3	0	0	0	0	538	291	610	15	
4	0	0	0	0	537	289	611	15	
5	0	0	0	0	535	293	610	15	
6	0	0	0	0	533	285	610	15	
7	0	0	0	0	531	276	610	15	
8	0	0	0	0	530	258	610	15	
9	0	0	0	0	528	245	610	15	
10	0	0	0	0	527	229	610	15	
11	0	0	0	0	525	216	610	15	
12	0	0	0	0	523	199	610	15	
13	0	0	0	0	522	192	610	15	
14	0	0	0	0	520	182	610	15	
15	0	0	0	0	518	179	610	15	
0	0	0	0	0	516	170	610	15	
1	0	0	0	0	514	181	610	15	
2	0	0	0	0	513	187	610	15	
3	0	0	0	0	512	204	609	15	
4	0	0	0	0	510	220	609	15	
5	0	0	0	0	508	241	610	15	
6	0	0	0	0	507	246	610	15	
7	0	0	0	0	505	248	610	15	
8	0	0	0	0	504	244	610	15	
9	0	0	0	0	502	244	610	15	
10	0	0	0	0	500	243	610	15	
11	0	0	0	0	499	240	610	15	
12	0	0	0	0	497	228	610	15	
13	0	0	0	0	496	224	609	15	
14	0	0	0	0	494	216	609	15	
15	0	0	0	0	493	208	609	15	
0	0	0	0	0	491	197	610	15	
1	0	0	0	0	489	199	609	15	
2	0	0	0	0	487	202	609	15	
3	0	0	0	0	486	202	609	15	
4	0	0	0	0	485	203	610	15	
5	0	0	0	0	483	210	609	15	
6	0	0	0	0	482	212	609	15	
7	0	0	0	0	480	216	609	15	
8	0	0	0	0	478	229	609	15	
9	0	0	0	0	477	248	609	15	
10	0	0	0	0	476	260	609	15	
11	0	0	0	0	474	278	609	15	
12	0	0	0	0	473	287	609	15	
13	0	0	0	0	472	294	609	15	
14	0	0	0	0	470	303	609	15	
15	0	0	0	0	468	309	609	15	
0	0	0	0	0	467	305	608	15	
1	0	0	0	0	466	303	608	15	
2	0	0	0	0	464	297	609	15	
3	0	0	0	0	464	295	609	15	
4	0	0	0	0	462	287	608	15	
5	0	0	0	0	461	290	608	15	
6	0	0	0	0	459	288	608	15	
7	0	0	0	0	459	290	608	15	
8	0	0	0	0	457	297	608	15	
9	0	0	0	0	455	304	608	15	
10	0	0	0	0	455	307	608	15	
11	0	0	0	0	454	317	608	15	
12	0	0	0	0	452	325	608	15	
13	0	0	0	0	451	339	608	15	
14	0	0	0	0	449	339	608	15	
15	0	0	0	0	448	343	607	15	
0	0	0	0	0	447	342	607	15	
1	0	0	0	0	446	342	607	15	
2	0	0	0	0	445	333	608	15	
3	0	0	0	0	444	330	608	15	
4	0	0	0	0	442	325	607	15	
5	0	0	0	0	440	323	607	15	
6	0	0	0	0	440	319	607	15	
7	0	0	0	0	439	316	607	15	
8	0	0	0	0	437	308	606	15	
9	0	0	0	0	436	310	607	15	
10	0	0	0	0	435	308	607	15	
11	0	0	0	0	433	306	607	15	
12	0	0	0	0	432	300	606	15	
13	0	0	0	0	432	305	606	15	
14	0	0	0	0	431	303	606	15	
15	0	0	0	0	429	318	606	15	
0	0	0	0	0	428	323	606	15	
1	0	0	0	0	427	337	606	15	
2	0	0	0	0	425	345	606	15	
3	0	0	0	0	425	354	605	15	
4	0	0	0	0	423	354	605	15	
5	0	0	0	0	423	353	605	15	
6	0	0	0	0	422	345	606	15	
7	0	0	0	0	421	339	606	15	
8	0	0	0	0	419	327	605	15	
9	0	0	0	0	419	321	605	15	
10	0	0	0	0	419	309	605	15	
11	0	0	0	0	418	299	605	15	
12	0	0	0	0	417	285	604	15	
13	0	0	0	0	416	285	604	15	
14	0	0	0	0	415	284	605	15	
15	0	0	0	0	414	287	604	15	
0	0	0	0	0	414	295	604	15	
1	0	0	0	0	413	306	604	15	
2	0	0	0	0	412	318	604	15	
3	0	0	0	0	411	330	604	15	
4	0	0	0	0	411	341	604	15	
5	0	0	0	0	410	356	604	15	
6	0	0	0	0	409	360	604	15	
7	0	0	0	0	408	366	603	15	
8	0	0	0	0	408	364	603	15	
9	0	0	0	0	407	363	604	15	
10	0	0	0	0	406	357	603	15	
11	0	0	0	0	406	354	603	15	
12	0	0	0	0	405	350	603	15	
13	0	0	0	0	404	346	603	15	
14	0	0	0	0	404	337	602	15	
15	0	0	0	0	404	336	603	15	
0	0	0	0	0	403	331	603	15	
1	0	0	0	0	402	334	602	15	
2	0	0	0	0	402	334	602	15	
3	0	0	0	0	402	340	602	15	
4	0	0	0	0	401	345	603	15	
5	0	0	0	0	401	357	602	15	
6	0	0	0	0	401	362	601	15	
7	0	0	0	0	401	376	602	15	
8	0	0	0	0	400	387	601	15	
9	0	0	0	0	399	406	601	15	
10	0	0	0	0	399	415	601	15	
11	0	0	0	0	399	425	601	15	
12	0	0	0	0	399	428	601	15	
13	0	0	0	0	398	430	600	15	
14	0	0	0	0	398	428	600	15	
15	0	0	0	0	398	423	600	15	
0	0	0	0	0	398	408	600	15	
1	0	0	0	0	398	406	600	15	
2	0	0	0	0	398	396	600	15	
3	0	0	0	0	397	386	599	15	
4	0	0	0	0	397	368	600	15	
5	0	0	0	0	397	358	600	15	
6	0	0	0	0	397	348	600	15	
7	0	0	0	0	397	343	599	15	
8	0	0	0	0	397	344	599	15	
9	0	0	0	0	397	352	599	15	
10	0	0	0	0	397	360	598	15	
11	0	0	0	0	397	375	598	15	
12	0	0	0	0	397	386	599	15	
13	0	0	0	0	397	406	598	15	
14	0	0	0	0	396	411	598	15	
15	0	0	0	0	396	417	598	15	
0	0	0	0	0	396	417	598	15	
1	0	0	0	0	396	421	597	15	
2	0	0	0	0	396	419	598	15	
3	0	0	0	0	396	419	597	15	
4	0	0	0	0	396	414	597	15	
5	0	0	0	0	397	410	596	15	
6	0	0	0	0	397	404	596	15	
7	0	0	0	0	396	406	596	15	
8	0	0	0	0	397	396	596	15	
9	0	0	0	0	397	395	596	15	
10	0	0	0	0	397	391	596	15	
11	0	0	0	0	397	391	596	15	
12	0	0	0	0	398	394	595	15	
13	0	0	0	0	398	403	595	15	
14	0	0	0	0	398	406	595	15	
15	0	0	0	0	398	418	595	15	
0	0	0	0	0	398	428	595	15	
1	0	0	0	0	399	443	595	15	
2	0	0	0	0	399	451	595	15	
3	0	0	0	0	399	458	594	15	
4	0	0	0	0	399	457	594	15	
5	0	0	0	0	399	461	594	15	
6	0	0	0	0	400	460	594	15	
7	0	0	0	0	400	458	593	15	
8	0	0	0	0	400	453	593	15	
9	0	0	0	0	401	446	593	15	
10	0	0	0	0	401	438	592	15	
11	0	0	0	0	401	440	593	15	
12	0	0	0	0	402	443	593	15	
13	0	0	0	0	402	455	592	15	
14	0	0	0	0	403	464	592	15	
15	0	0	0	0	403	482	591	15	
0	0	0	0	0	403	506	591	15	
1	0	0	0	0	404	542	591	15	
2	0	0	0	0	404	571	591	15	
3	0	0	0	0	405	613	591	15	
4	0	0	0	0	405	651	591	15	
5	0	0	0	0	406	696	591	15	
6	0	0	0	0	406	726	591	15	
7	0	0	0	0	407	759	591	15	
8	0	0	0	0	407	778	590	15	
9	0	0	0	0	407	793	590	15	
10	0	0	0	0	408	801	590	15	
11	0	0	0	0	408	811	589	15	
12	0	0	0	0	408	816	589	15	
13	0	0	0	0	408	829	590	15	
14	0	0	0	0	409	833	589	15	
15	0	0	0	0	410	839	589	15	
0	0	0	0	0	410	833	588	15	
1	0	0	0	0	410	840	588	15	
2	0	0	0	0	410	838	588	15	
3	0	0	0	0	411	837	588	15	
4	0	0	0	0	412	845	588	15	
5	0	0	0	0	412	849	588	15	
6	0	0	0	0	412	860	588	15	
7	0	0	0	0	412	871	588	15	
8	0	0	0	0	413	877	587	15	
9	0	0	0	0	414	886	588	15	
10	0	0	0	0	413	883	587	15	
11	0	0	0	0	414	878	587	15	
12	0	0	0	0	415	871	586	15	
13	0	0	0	0	415	861	586	15	
14	0	0	0	0	415	847	587	15	
15	0	0	0	0	416	830	587	15	
0	0	0	0	0	416	810	586	15	
1	0	0	0	0	417	783	585	15	
2	0	0	0	0	417	752	585	15	
3	0	0	0	0	417	737	585	15	
4	0	0	0	0	419	716	585	15	
5	0	0	0	0	419	701	585	15	
6	0	0	0	0	419	684	585	15	
7	0	0	0	0	419	673	585	15	
8	0	0	0	0	420	661	585	15	
9	0	0	0	0	420	657	585	15	
10	0	0	0	0	420	651	584	15	
11	0	0	0	0	421	651	584	15	
12	0	0	0	0	422	654	584	15	
13	0	0	0	0	423	669	583	15	
14	0	0	0	0	423	684	583	15	
15	0	0	0	0	423	707	584	15	
0	0	0	0	0	423	721	583	15	
1	0	0	0	0	423	733	583	15	
2	0	0	0	0	424	736	583	15	
3	0	0	0	0	424	733	583	15	
4	0	0	0	0	425	719	583	15	
5	0	0	0	0	425	716	583	15	
6	0	0	0	0	425	712	583	15	
7	0	0	0	0	426	709	583	15	
8	0	0	0	0	426	698	583	15	
9	0	0	0	0	426	693	582	15	
10	0	0	0	0	427	687	582	15	
11	0	0	0	0	427	694	582	15	
12	0	0	0	0	427	703	582	15	
13	0	0	0	0	428	718	582	15	
14	0	0	0	0	428	731	582	15	
15	0	0	0	0	428	751	581	15	
0	0	0	0	0	429	764	581	15	
1	0	0	0	0	430	785	581	15	
2	0	0	0	0	430	798	581	15	
3	0	0	0	0	429	810	581	15	
4	0	0	0	0	430	812	580	15	
5	0	0	0	0	430	813	580	15	
6	0	0	0	0	430	818	580	15	
7	0	0	0	0	430	821	580	15	
8	0	0	0	0	431	816	580	15	
9	0	0	0	0	431	813	580	15	
10	0	0	0	0	431	801	579	15	
11	0	0	0	0	431	792	579	15	
12	0	0	0	0	432	777	580	15	
13	0	0	0	0	432	775	580	15	
14	0	0	0	0	432	772	579	15	
15	0	0	0	0	432	776	579	15	
0	0	0	0	0	432	780	579	15	
1	0	0	0	0	432	789	579	15	
2	0	0	0	0	433	799	579	15	
3	0	0	0	0	433	810	579	15	
4	0	0	0	0	433	814	579	15	
5	0	0	0	0	434	825	579	15	
6	0	0	0	0	434	829	579	15	
7	0	0	0	0	434	833	579	15	
8	0	0	0	0	434	828	578	15	
9	0	0	0	0	435	826	578	15	
10	0	0	0	0	434	822	578	15	
11	0	0	0	0	434	810	579	15	
12	0	0	0	0	435	801	578	15	
13	0	0	0	0	435	796	577	15	
14	0	0	0	0	435	783	577	15	
15	0	0	0	0	435	776	578	15	
0	0	0	0	0	435	763	577	15	
1	0	0	0	0	435	760	577	15	
2	0	0	0	0	435	757	577	15	
3	0	0	0	0	435	760	577	15	
4	0	0	0	0	436	763	577	15	
5	0	0	0	0	436	774	576	15	
6	0	0	0	0	437	774	576	15	
7	0	0	0	0	437	788	575	15	
8	0	0	0	0	438	799	576	15	
9	0	0	0	0	437	810	576	15	
10	0	0	0	0	437	808	576	15	
11	0	0	0	0	438	809	575	15	
12	0	0	0	0	438	803	575	15	
13	0	0	0	0	438	802	575	15	
14	0	0	0	0	438	791	575	15	
15	0	0	0	0	438	785	575	15	
0	0	0	0	0	438	775	574	15	
1	0	0	0	0	438	769	574	15	
2	0	0	0	0	437	756	574	15	
3	0	0	0	0	438	742	574	15	
4	0	0	0	0	438	716	574	15	
5	0	0	0	0	439	696	573	15	
6	0	0	0	0	439	672	573	15	
7	0	0	0	0	438	653	572	15	
8	0	0	0	0	438	635	572	15	
9	0	0	0	0	439	623	572	15	
10	0	0	0	0	439	603	572	15	
11	0	0	0	0	439	585	571	15	
12	0	0	0	0	439	564	571	15	
13	0	0	0	0	439	551	571	15	
14	0	0	0	0	439	541	571	15	
15	0	0	0	0	440	530	570	15	
0	0	0	0	0	439	516	570	15	
1	0	0	0	0	439	510	569	15	
2	0	0	0	0	440	494	569	15	
3	0	0	0	0	440	483	569	15	
4	0	0	0	0	439	467	569	15	
5	0	0	0	0	440	462	568	15	
6	0	0	0	0	440	451	568	15	
7	0	0	0	0	440	444	568	15	
8	0	0	0	0	440	430	568	15	
9	0	0	0	0	440	428	567	15	
10	0	0	0	0	440	424	568	15	
11	0	0	0	0	440	430	567	15	
12	0	0	0	0	440	432	567	15	
13	0	0	0	0	440	444	566	15	
14	0	0	0	0	440	453	566	15	
15	0	0	0	0	440	468	566	15	
0	0	0	0	0	440	480	566	15	
1	0	0	0	0	440	499	566	15	
2	0	0	0	0	440	509	565	15	
3	0	0	0	0	441	520	565	15	
4	0	0	0	0	441	526	565	15	
5	0	0	0	0	441	534	564	15	
6	0	0	0	0	441	528	564	15	
7	0	0	0	0	440	523	564	15	
8	0	0	0	0	440	508	563	15	
9	0	0	0	0	440	499	563	15	
10	0	0	0	0	440	487	563	15	
11	0	0	0	0	441	476	563	15	
12	0	0	0	0	441	464	562	15	
13	0	0	0	0	441	460	562	15	
14	0	0	0	0	440	455	562	15	
15	0	0	0	0	441	453	561	15	
0	0	0	0	0	441	448	562	15	
1	0	0	0	0	441	446	561	15	
2	0	0	0	0	441	449	561	15	
3	0	0	0	0	441	458	560	15	
4	0	0	0	0	440	463	560	15	
5	0	0	0	0	441	480	560	15	
6	0	0	0	0	441	491	560	15	
7	0	0	0	0	441	502	560	15	
8	0	0	0	0	441	508	559	15	
9	0	0	0	0	441	508	559	15	
10	0	0	0	0	441	516	559	15	
11	0	0	0	0	441	518	559	15	
12	0	0	0	0	441	512	559	15	
13	0	0	0	0	441	510	558	15	
14	0	0	0	0	442	505	558	15	
15	0	0	0	0	441	502	558	15	
0	0	0	0	0	442	498	558	15	
1	0	0	0	0	442	501	558	15	
2	0	0	0	0	442	501	557	15	
3	0	0	0	0	442	503	557	15	
4	0	0	0	0	442	506	557	15	
5	0	0	0	0	443	513	556	15	
6	0	0	0	0	443	521	556	15	
7	0	0	0	0	443	534	556	15	
8	0	0	0	0	443	550	556	15	
9	0	0	0	0	444	574	555	15	
10	0	0	0	0	444	591	555	15	
11	0	0	0	0	445	606	555	15	
12	0	0	0	0	444	615	555	15	
13	0	0	0	0	444	624	554	15	
14	0	0	0	0	444	615	554	15	
15	0	0	0	0	444	609	553	15	
0	0	0	0	0	444	591	553	15	
1	0	0	0	0	444	578	553	15	
2	0	0	0	0	444	559	553	15	
3	0	0	0	0	445	545	553	15	
4	0	0	0	0	445	523	552	15	
5	0	0	0	0	445	516	552	15	
6	0	0	0	0	445	505	552	15	
7	0	0	0	0	445	501	551	15	
8	0	0	0	0	446	497	551	15	
9	0	0	0	0	446	498	551	15	
10	0	0	0	0	446	492	551	15	
11	0	0	0	0	446	502	550	15	
12	0	0	0	0	447	511	550	15	
13	0	0	0	0	447	529	550	15	
14	0	0	0	0	447	542	550	15	
15	0	0	0	0	448	551	549	15	
0	0	0	0	0	448	554	549	15	
1	0	0	0	0	448	557	548	15	
2	0	0	0	0	448	555	548	15	
3	0	0	0	0	448	553	548	15	
4	0	0	0	0	449	549	548	15	
5	0	0	0	0	448	536	548	15	
6	0	0	0	0	449	520	547	15	
7	0	0	0	0	448	505	547	15	
8	0	0	0	0	449	482	547	15	
9	0	0	0	0	450	463	547	15	
10	0	0	0	0	450	448	546	15	
11	0	0	0	0	450	433	546	15	
12	0	0	0	0	451	432	545	15	
13	0	0	0	0	451	431	545	15	
14	0	0	0	0	451	434	545	15	
15	0	0	0	0	451	440	545	15	
0	0	0	0	0	452	438	544	15	
1	0	0	0	0	453	440	544	15	
2	0	0	0	0	454	448	544	15	
3	0	0	0	0	455	449	544	15	
4	0	0	0	0	455	444	544	15	
5	0	0	0	0	455	438	543	15	
6	0	0	0	0	455	431	543	15	
7	0	0	0	0	457	419	543	15	
8	0	0	0	0	456	405	543	15	
9	0	0	0	0	457	391	542	15	
10	0	0	0	0	459	371	542	15	
11	0	0	0	0	459	352	542	15	
12	0	0	0	0	460	327	542	15	
13	0	0	0	0	460	317	541	15	
14	0	0	0	0	461	310	541	15	
15	0	0	0	0	462	300	541	15	
0	0	0	0	0	463	295	541	15	
1	0	0	0	0	464	290	540	15	
2	0	0	0	0	465	290	540	15	
3	0	0	0	0	466	295	540	15	
4	0	0	0	0	467	301	540	15	
5	0	0	0	0	467	310	540	15	
6	0	0	0	0	469	317	540	15	
7	0	0	0	0	470	321	539	15	
8	0	0	0	0	471	319	539	15	
9	0	0	0	0	472	318	539	15	
10	0	0	0	0	473	315	539	15	
11	0	0	0	0	475	307	539	15	
12	0	0	0	0	476	295	538	15	
13	0	0	0	0	477	287	538	15	
14	0	0	0	0	478	275	538	15	
15	0	0	0	0	480	265	538	15	
0	0	0	0	0	482	252	537	15	
1	0	0	0	0	483	241	537	15	
2	0	0	0	0	485	240	537	15	
3	0	0	0	0	486	237	537	15	
4	0	0	0	0	487	238	537	15	
5	0	0	0	0	489	239	537	15	
6	0	0	0	0	491	244	536	15	
7	0	0	0	0	492	253	536	15	
8	0	0	0	0	494	270	536	15	
9	0	0	0	0	496	292	536	15	
10	0	0	0	0	497	315	536	15	
11	0	0	0	0	499	334	536	15	
12	0	0	0	0	502	348	536	15	
13	0	0	0	0	504	355	536	15	
14	0	0	0	0	505	361	536	15	
15	0	0	0	0	507	361	535	15	
0	0	0	0	0	510	356	535	15	
1	0	0	0	0	511	349	535	15	
2	0	0	0	0	513	337	535	15	
3	0	0	0	0	515	327	535	15	
4	0	0	0	0	518	315	535	15	
5	0	0	0	0	519	307	534	15	
6	0	0	0	0	522	303	534	15	
7	0	0	0	0	524	302	534	15	
8	0	0	0	0	526	304	534	15	
9	0	0	0	0	528	309	534	15	
10	0	0	0	0	531	316	534	15	
11	0	0	0	0	533	328	534	15	
12	0	0	0	0	535	343	533	15	
13	0	0	0	0	538	361	533	15	
14	0	0	0	0	540	378	533	15	
15	0	0	0	0	543	390	532	15	
0	0	0	0	0	544	399	532	15	
1	0	0	0	0	547	409	532	15	
2	0	0	0	0	549	414	532	15	
3	0	0	0	0	552	411	532	15	
4	0	0	0	0	554	407	531	15	
5	0	0	0	0	557	399	531	15	
6	0	0	0	0	559	390	531	15	
7	0	0	0	0	562	380	531	15	
8	0	0	0	0	564	366	531	15	
9	0	0	0	0	567	358	531	15	
10	0	0	0	0	568	352	531	15	
11	0	0	0	0	571	352	531	15	
12	0	0	0	0	574	358	531	15	
13	0	0	0	0	575	371	530	15	
14	0	0	0	0	578	381	530	15	
15	0	0	0	0	580	396	530	15	
0	0	0	0	0	583	407	529	15	
1	0	0	0	0	585	426	529	15	
2	0	0	0	0	587	438	529	15	
3	0	0	0	0	589	448	529	15	
4	0	0	0	0	591	458	529	15	
5	0	0	0	0	593	460	528	15	
6	0	0	0	0	595	455	529	15	
7	0	0	0	0	597	446	528	15	
8	0	0	0	0	599	433	528	15	
9	0	0	0	0	600	420	528	15	
10	0	0	0	0	603	407	528	15	
11	0	0	0	0	604	396	527	15	
12	0	0	0	0	606	383	527	15	
13	0	0	0	0	608	376	527	15	
14	0	0	0	0	609	374	527	15	
15	0	0	0	0	611	365	527	15	
0	0	0	0	0	613	372	527	15	
1	0	0	0	0	615	382	526	15	
2	0	0	0	0	616	392	526	15	
3	0	0	0	0	617	405	526	15	
4	0	0	0	0	619	420	526	15	
5	0	0	0	0	620	433	526	15	
6	0	0	0	0	622	453	526	15	
7	0	0	0	0	622	465	526	15	
8	0	0	0	0	624	470	525	15	
9	0	0	0	0	625	473	525	15	
10	0	0	0	0	626	473	525	15	
11	0	0	0	0	627	470	524	15	
12	0	0	0	0	628	465	524	15	
13	0	0	0	0	629	460	524	15	
14	0	0	0	0	630	455	524	15	
15	0	0	0	0	630	455	524	15	
0	0	0	0	0	631	450	524	15	
1	0	0	0	0	631	455	524	15	
2	0	0	0	0	632	459	523	15	
3	0	0	0	0	632	460	524	15	
4	0	0	0	0	632	471	523	15	
5	0	0	0	0	633	479	523	15	
6	0	0	0	0	633	489	523	15	
7	0	0	0	0	634	504	523	15	
8	0	0	0	0	635	518	522	15	
9	0	0	0	0	635	532	522	15	
10	0	0	0	0	635	544	522	15	
11	0	0	0	0	635	554	522	15	
12	0	0	0	0	634	556	522	15	
13	0	0	0	0	634	555	521	15	
14	0	0	0	0	634	552	521	15	
15	0	0	0	0	634	545	521	15	
0	0	0	0	0	634	539	521	15	
1	0	0	0	0	634	531	520	15	
2	0	0	0	0	634	523	520	15	
3	0	0	0	0	634	515	520	15	
4	0	0	0	0	634	505	520	15	
5	0	0	0	0	632	500	520	15	
6	0	0	0	0	632	499	520	15	
7	0	0	0	0	632	494	520	15	
8	0	0	0	0	632	495	520	15	
9	0	0	0	0	631	493	519	15	
10	0	0	0	0	631	496	519	15	
11	0	0	0	0	630	501	519	15	
12	0	0	0	0	629	511	519	15	
13	0	0	0	0	629	522	519	15	
14	0	0	0	0	628	529	519	15	
15	0	0	0	0	627	536	519	15	
0	0	0	0	0	626	541	519	15	
1	0	0	0	0	626	540	519	15	
2	0	0	0	0	625	539	519	15	
3	0	0	0	0	624	531	519	15	
4	0	0	0	0	623	516	518	15	
5	0	0	0	0	622	501	518	15	
6	0	0	0	0	622	489	518	15	
7	0	0	0	0	621	480	518	15	
8	0	0	0	0	620	469	518	15	
9	0	0	0	0	619	462	518	15	
10	0	0	0	0	617	461	517	15	
11	0	0	0	0	617	462	517	15	
12	0	0	0	0	616	465	517	15	
13	0	0	0	0	615	470	517	15	
14	0	0	0	0	614	480	517	15	
15	0	0	0	0	613	495	516	15	
0	0	0	0	0	612	505	517	15	
1	0	0	0	0	611	513	516	15	
2	0	0	0	0	610	526	516	15	
3	0	0	0	0	609	524	516	15	
4	0	0	0	0	607	525	515	15	
5	0	0	0	0	607	514	516	15	
6	0	0	0	0	605	511	516	15	
7	0	0	0	0	604	499	515	15	
8	0	0	0	0	603	487	515	15	
9	0	0	0	0	601	475	515	15	
10	0	0	0	0	600	460	515	15	
11	0	0	0	0	600	449	515	15	
12	0	0	0	0	598	435	515	15	
13	0	0	0	0	597	431	515	15	
14	0	0	0	0	596	431	515	15	
15	0	0	0	0	594	441	514	15	
0	0	0	0	0	593	448	515	15	
1	0	0	0	0	592	459	515	15	
2	0	0	0	0	591	467	514	15	
3	0	0	0	0	590	491	514	15	
4	0	0	0	0	588	508	514	15	
5	0	0	0	0	588	532	514	15	
6	0	0	0	0	587	551	514	15	
7	0	0	0	0	585	572	514	15	
8	0	0	0	0	584	583	513	15	
9	0	0	0	0	582	591	513	15	
10	0	0	0	0	581	588	514	15	
11	0	0	0	0	579	587	513	15	
12	0	0	0	0	578	576	513	15	
13	0	0	0	0	577	564	513	15	
14	0	0	0	0	575	558	513	15	
15	0	0	0	0	574	547	513	15	
0	0	0	0	0	573	532	513	15	
1	0	0	0	0	571	526	513	15	
2	0	0	0	0	570	523	512	15	
3	0	0	0	0	569	518	512	15	
4	0	0	0	0	568	521	512	15	
5	0	0	0	0	566	527	512	15	
6	0	0	0	0	565	530	512	15	
7	0	0	0	0	563	539	512	15	
8	0	0	0	0	562	546	512	15	
9	0	0	0	0	561	554	512	15	
10	0	0	0	0	560	561	512	15	
11	0	0	0	0	558	566	512	15	
12	0	0	0	0	557	564	512	15	
13	0	0	0	0	556	560	511	15	
14	0	0	0	0	554	560	512	15	
15	0	0	0	0	553	559	512	15	
0	0	0	0	0	552	554	512	15	
1	0	0	0	0	551	550	511	15	
2	0	0	0	0	550	535	511	15	
3	0	0	0	0	549	520	511	15	
4	0	0	0	0	548	490	511	15	
5	0	0	0	0	547	462	511	15	
6	0	0	0	0	545	437	511	14	
7	0	0	0	0	544	420	511	15	
8	0	0	0	0	543	407	511	15	
9	0	0	0	0	542	411	511	15	
10	0	0	0	0	541	413	511	15	
11	0	0	0	0	540	417	511	15	
12	0	0	0	0	539	423	511	15	
13	0	0	0	0	537	431	511	15	
14	0	0	0	0	537	432	511	15	
15	0	0	0	0	536	432	511	15	
0	0	0	0	0	535	426	511	15	
1	0	0	0	0	534	425	511	15	
2	0	0	0	0	533	421	511	15	
3	0	0	0	0	531	415	510	15	
4	0	0	0	0	531	399	510	15	
5	0	0	0	0	529	389	511	15	
6	0	0	0	0	528	369	511	15	
7	0	0	0	0	528	354	510	15	
8	0	0	0	0	527	340	510	15	
9	0	0	0	0	526	331	510	15	
10	0	0	0	0	524	325	510	15	
11	0	0	0	0	524	324	510	15	
12	0	0	0	0	523	321	510	15	
13	0	0	0	0	522	328	510	15	
14	0	0	0	0	521	337	510	15	
15	0	0	0	0	521	351	510	14	
0	0	0	0	0	520	357	510	15	
1	0	0	0	0	519	366	510	15	
2	0	0	0	0	518	369	510	15	
3	0	0	0	0	517	372	510	15	
4	0	0	0	0	517	366	509	15	
5	0	0	0	0	516	357	509	15	
6	0	0	0	0	515	352	509	15	
7	0	0	0	0	514	347	510	15	
8	0	0	0	0	514	339	509	15	
9	0	0	0	0	513	326	509	14	
10	0	0	0	0	512	310	509	15	
11	0	0	0	0	512	299	509	15	
12	0	0	0	0	511	285	508	15	
13	0	0	0	0	510	281	508	15	
14	0	0	0	0	510	279	508	15	
15	0	0	0	0	509	283	509	15	
0	0	0	0	0	508	290	509	15	
1	0	0	0	0	507	308	509	15	
2	0	0	0	0	507	331	508	15	
3	0	0	0	0	506	361	508	15	
4	0	0	0	0	505	390	508	15	
5	0	0	0	0	504	422	509	15	
6	0	0	0	0	504	446	508	15	
7	0	0	0	0	503	466	508	15	
8	0	0	0	0	503	472	508	15	
9	0	0	0	0	502	480	508	15	
10	0	0	0	0	502	485	508	15	
11	0	0	0	0	500	489	508	15	
12	0	0	0	0	499	489	508	15	
13	0	0	0	0	499	493	508	15	
14	0	0	0	0	498	495	508	15	
15	0	0	0	0	498	508	508	15	
0	0	0	0	0	497	520	507	15	
1	0	0	0	0	496	535	508	15	
2	0	0	0	0	496	552	507	15	
3	0	0	0	0	495	575	507	15	
4	0	0	0	0	495	596	508	15	
5	0	0	0	0	494	621	508	15	
6	0	0	0	0	494	637	508	15	
7	0	0	0	0	493	667	507	15	
8	0	0	0	0	492	695	507	15	
9	0	0	0	0	492	725	507	15	
10	0	0	0	0	492	747	507	15	
11	0	0	0	0	491	767	507	15	
12	0	0	0	0	490	787	507	15	
13	0	0	0	0	489	807	507	15	
14	0	0	0	0	489	823	507	15	
15	0	0	0	0	488	836	508	15	
0	0	0	0	0	487	847	507	15	
1	0	0	0	0	487	854	507	15	
2	0	0	0	0	486	851	506	15	
3	0	0	0	0	486	843	506	15	
4	0	0	0	0	486	824	506	15	
5	0	0	0	0	485	808	507	15	
6	0	0	0	0	484	794	507	15	
7	0	0	0	0	484	783	507	15	
8	0	0	0	0	484	774	507	15	
9	0	0	0	0	483	768	507	15	
10	0	0	0	0	483	767	507	15	
11	0	0	0	0	483	768	506	15	
12	0	0	0	0	482	772	507	15	
13	0	0	0	0	482	778	507	15	
14	0	0	0	0	481	787	506	15	
15	0	0	0	0	481	789	507	15	
0	0	0	0	0	481	792	506	15	
1	0	0	0	0	480	796	506	15	
2	0	0	0	0	480	796	507	15	
3	0	0	0	0	479	793	507	15	
4	0	0	0	0	480	782	507	15	
5	0	0	0	0	479	760	506	15	
6	0	0	0	0	479	731	506	15	
7	0	0	0	0	479	702	507	15	
8	0	0	0	0	478	668	506	15	
9	0	0	0	0	479	643	506	15	
10	0	0	0	0	478	621	506	15	
11	0	0	0	0	478	606	506	15	
12	0	0	0	0	478	595	506	15	
13	0	0	0	0	477	585	507	15	
14	0	0	0	0	477	581	506	15	
15	0	0	0	0	477	583	506	15	
0	0	0	0	0	476	589	506	15	
1	0	0	0	0	477	596	506	15	
2	0	0	0	0	476	607	506	15	
3	0	0	0	0	476	613	506	15	
4	0	0	0	0	476	608	506	15	
5	0	0	0	0	476	604	505	15	
6	0	0	0	0	476	596	506	15	
7	0	0	0	0	476	580	506	15	
8	0	0	0	0	476	561	506	15	
9	0	0	0	0	476	544	506	15	
10	0	0	0	0	476	525	506	15	
11	0	0	0	0	476	507	506	15	
12	0	0	0	0	476	484	506	15	
13	0	0	0	0	476	466	506	15	
14	0	0	0	0	476	451	506	15	
15	0	0	0	0	476	437	506	15	
0	0	0	0	0	476	432	506	15	
1	0	0	0	0	476	432	506	15	
2	0	0	0	0	476	437	506	15	
3	0	0	0	0	476	446	506	15	
4	0	0	0	0	476	460	506	15	
5	0	0	0	0	476	479	506	15	
6	0	0	0	0	476	498	506	15	
7	0	0	0	0	476	515	506	15	
8	0	0	0	0	476	531	506	15	
9	0	0	0	0	476	545	506	15	
10	0	0	0	0	476	550	506	15	
11	0	0	0	0	476	547	506	15	
12	0	0	0	0	476	543	506	15	
13	0	0	0	0	477	534	506	14	
14	0	0	0	0	477	519	506	15	
15	0	0	0	0	478	507	506	15	
0	0	0	0	0	478	493	506	15	
1	0	0	0	0	478	487	506	15	
2	0	0	0	0	479	486	506	15	
3	0	0	0	0	479	488	506	15	
4	0	0	0	0	480	495	506	15	
5	0	0	0	0	480	499	506	15	
6	0	0	0	0	480	507	506	15	
7	0	0	0	0	481	515	506	15	
8	0	0	0	0	481	527	506	15	
9	0	0	0	0	482	536	506	15	
10	0	0	0	0	482	546	506	15	
11	0	0	0	0	482	554	506	15	
12	0	0	0	0	483	558	506	15	
13	0	0	0	0	482	565	506	15	
14	0	0	0	0	483	574	506	15	
15	0	0	0	0	484	582	507	15	
0	0	0	0	0	484	587	506	15	
1	0	0	0	0	484	591	507	15	
2	0	0	0	0	484	592	506	15	
3	0	0	0	0	485	591	506	15	
4	0	0	0	0	486	587	506	15	
5	0	0	0	0	486	583	506	15	
6	0	0	0	0	486	580	506	15	
7	0	0	0	0	486	577	506	15	
8	0	0	0	0	487	583	507	15	
9	0	0	0	0	487	593	507	15	
10	0	0	0	0	487	605	506	15	
11	0	0	0	0	488	620	507	15	
12	0	0	0	0	488	638	507	14	
13	0	0	0	0	489	653	507	15	
14	0	0	0	0	489	672	507	15	
15	0	0	0	0	489	687	507	15	
0	0	0	0	0	490	704	507	15	
1	0	0	0	0	491	717	506	15	
