# OpenSignals Text File Format. Version 1
# {"98:D3:71:FD:62:5E": {"position": 0, "device": "bitalino_rev", "device name": "98:D3:71:FD:62:5E", "device connection": "BTH98:D3:71:FD:62:5E", "sampling rate": 1000, "resolution": [4, 1, 1, 1, 1, 10, 10, 10, 10], "firmware version": 1282, "comments": "", "keywords": "", "mode": 0, "sync interval": 2, "date": "2022-10-21", "time": "11:34:7.946", "channels": [1, 2, 3, 4], "sensor": ["PULSEOXI", "ECGBIT", "RESPBIT", "LUX"], "label": ["A1", "A2", "A3", "A4"], "column": ["nSeq", "I1", "I2", "O1", "O2", "A1", "A2", "A3", "A4"], "special": [{}, {}, {}, {}], "digital IO": [0, 0, 1, 1]}}
# EndOfHeader
0	0	0	0	0	444	434	648	15	
1	0	0	0	0	444	433	648	15	
2	0	0	0	0	444	433	648	15	
3	0	0	0	0	445	433	647	15	
4	0	0	0	0	445	434	646	15	
5	0	0	0	0	446	436	647	15	
6	0	0	0	0	446	440	646	15	
7	0	0	0	0	447	444	646	15	
8	0	0	0	0	447	450	645	15	
9	0	0	0	0	448	455	645	15	
10	0	0	0	0	448	457	644	15	
11	0	0	0	0	448	457	644	15	
12	0	0	0	0	448	459	643	15	
13	0	0	0	0	449	460	643	15	
14	0	0	0	0	449	461	643	15	
15	0	0	0	0	450	462	642	15	
0	0	0	0	0	451	463	642	15	
1	0	0	0	0	451	464	641	15	
2	0	0	0	0	451	465	640	15	
3	0	0	0	0	452	467	640	15	
4	0	0	0	0	452	468	640	15	
5	0	0	0	0	452	469	640	15	
6	0	0	0	0	453	470	639	15	
7	0	0	0	0	453	469	639	15	
8	0	0	0	0	453	468	639	15	
9	0	0	0	0	454	467	638	15	
10	0	0	0	0	455	467	638	15	
11	0	0	0	0	456	466	637	15	
12	0	0	0	0	456	465	637	15	
13	0	0	0	0	457	465	637	15	
14	0	0	0	0	458	465	636	15	
15	0	0	0	0	457	464	636	15	
0	0	0	0	0	459	463	636	15	
1	0	0	0	0	460	463	635	15	
2	0	0	0	0	461	464	635	15	
3	0	0	0	0	461	466	635	15	
4	0	0	0	0	462	467	635	15	
5	0	0	0	0	462	467	634	15	
6	0	0	0	0	463	467	634	15	
7	0	0	0	0	463	468	633	15	
8	0	0	0	0	464	470	633	15	
9	0	0	0	0	465	472	633	15	
10	0	0	0	0	465	474	633	15	
11	0	0	0	0	466	476	632	15	
12	0	0	0	0	466	478	632	15	
13	0	0	0	0	467	480	632	15	
14	0	0	0	0	468	479	632	15	
15	0	0	0	0	468	479	632	15	
0	0	0	0	0	469	478	631	15	
1	0	0	0	0	469	476	631	15	
2	0	0	0	0	470	476	631	15	
3	0	0	0	0	471	477	631	15	
4	0	0	0	0	471	480	631	15	
5	0	0	0	0	472	481	630	15	
6	0	0	0	0	472	480	630	15	
7	0	0	0	0	473	480	630	15	
8	0	0	0	0	473	478	630	15	
9	0	0	0	0	474	476	630	15	
10	0	0	0	0	475	475	628	15	
11	0	0	0	0	475	474	628	15	
12	0	0	0	0	476	476	628	15	
13	0	0	0	0	476	479	628	15	
14	0	0	0	0	477	480	628	15	
15	0	0	0	0	477	480	627	15	
0	0	0	0	0	477	479	627	15	
1	0	0	0	0	478	478	627	15	
2	0	0	0	0	478	479	627	15	
3	0	0	0	0	479	482	626	15	
4	0	0	0	0	479	486	626	15	
5	0	0	0	0	479	488	625	15	
6	0	0	0	0	481	492	625	15	
7	0	0	0	0	480	494	625	15	
8	0	0	0	0	481	495	624	15	
9	0	0	0	0	481	494	624	15	
10	0	0	0	0	481	493	624	15	
11	0	0	0	0	482	492	623	15	
12	0	0	0	0	482	491	623	15	
13	0	0	0	0	483	489	622	15	
14	0	0	0	0	483	487	622	15	
15	0	0	0	0	483	485	621	15	
0	0	0	0	0	484	483	621	15	
1	0	0	0	0	484	482	620	15	
2	0	0	0	0	484	482	620	15	
3	0	0	0	0	485	482	620	15	
4	0	0	0	0	485	483	619	15	
5	0	0	0	0	486	485	618	15	
6	0	0	0	0	486	487	617	15	
7	0	0	0	0	486	489	617	15	
8	0	0	0	0	486	490	616	15	
9	0	0	0	0	487	491	615	15	
10	0	0	0	0	487	491	615	15	
11	0	0	0	0	488	490	615	15	
12	0	0	0	0	487	490	614	15	
13	0	0	0	0	488	491	614	15	
14	0	0	0	0	489	491	614	15	
15	0	0	0	0	489	490	613	15	
0	0	0	0	0	489	489	612	15	
1	0	0	0	0	489	488	612	15	
2	0	0	0	0	489	489	611	15	
3	0	0	0	0	489	489	611	15	
4	0	0	0	0	490	485	610	15	
5	0	0	0	0	490	481	610	15	
6	0	0	0	0	490	482	609	15	
7	0	0	0	0	490	484	608	15	
8	0	0	0	0	490	486	608	15	
9	0	0	0	0	490	490	607	15	
10	0	0	0	0	491	497	607	15	
11	0	0	0	0	491	503	606	15	
12	0	0	0	0	491	505	606	15	
13	0	0	0	0	492	504	606	15	
14	0	0	0	0	492	504	605	15	
15	0	0	0	0	491	504	604	15	
0	0	0	0	0	492	503	604	15	
1	0	0	0	0	492	500	604	15	
2	0	0	0	0	492	499	603	15	
3	0	0	0	0	492	500	603	15	
4	0	0	0	0	492	502	602	15	
5	0	0	0	0	492	505	602	15	
6	0	0	0	0	492	507	601	15	
7	0	0	0	0	492	508	600	15	
8	0	0	0	0	493	508	600	15	
9	0	0	0	0	493	507	600	15	
10	0	0	0	0	493	504	600	15	
11	0	0	0	0	492	503	599	15	
12	0	0	0	0	492	502	599	15	
13	0	0	0	0	493	502	598	15	
14	0	0	0	0	492	503	598	15	
15	0	0	0	0	492	505	597	15	
0	0	0	0	0	492	506	597	15	
1	0	0	0	0	492	505	596	15	
2	0	0	0	0	493	505	596	15	
3	0	0	0	0	493	506	595	15	
4	0	0	0	0	492	508	595	15	
5	0	0	0	0	492	510	595	15	
6	0	0	0	0	492	510	594	15	
7	0	0	0	0	492	511	594	15	
8	0	0	0	0	492	512	593	15	
9	0	0	0	0	492	513	593	15	
10	0	0	0	0	492	513	592	15	
11	0	0	0	0	492	514	591	15	
12	0	0	0	0	492	514	591	15	
13	0	0	0	0	492	512	591	15	
14	0	0	0	0	492	512	591	15	
15	0	0	0	0	492	513	590	15	
0	0	0	0	0	491	513	590	15	
1	0	0	0	0	492	514	589	15	
2	0	0	0	0	491	515	588	15	
3	0	0	0	0	492	514	588	15	
4	0	0	0	0	491	515	588	15	
5	0	0	0	0	490	515	587	15	
6	0	0	0	0	491	516	586	15	
7	0	0	0	0	491	515	586	15	
8	0	0	0	0	491	514	585	15	
9	0	0	0	0	491	511	585	15	
10	0	0	0	0	491	507	584	15	
11	0	0	0	0	491	504	584	15	
12	0	0	0	0	490	501	583	15	
13	0	0	0	0	490	499	583	15	
14	0	0	0	0	490	498	582	15	
15	0	0	0	0	489	501	582	15	
0	0	0	0	0	489	505	581	15	
1	0	0	0	0	489	508	580	15	
2	0	0	0	0	488	512	580	15	
3	0	0	0	0	488	514	579	15	
4	0	0	0	0	488	514	579	15	
5	0	0	0	0	488	513	578	15	
6	0	0	0	0	487	513	577	15	
7	0	0	0	0	487	515	577	15	
8	0	0	0	0	487	517	576	15	
9	0	0	0	0	487	519	575	15	
10	0	0	0	0	487	520	575	15	
11	0	0	0	0	487	521	575	15	
12	0	0	0	0	486	521	574	15	
13	0	0	0	0	485	520	573	15	
14	0	0	0	0	485	519	572	15	
15	0	0	0	0	485	518	572	15	
0	0	0	0	0	485	516	571	15	
1	0	0	0	0	485	515	570	15	
2	0	0	0	0	485	515	570	15	
3	0	0	0	0	484	515	569	15	
4	0	0	0	0	486	515	569	15	
5	0	0	0	0	485	515	568	15	
6	0	0	0	0	486	514	568	15	
7	0	0	0	0	486	515	567	15	
8	0	0	0	0	486	518	567	15	
9	0	0	0	0	487	519	566	15	
10	0	0	0	0	487	518	565	15	
11	0	0	0	0	487	519	564	15	
12	0	0	0	0	487	517	563	15	
13	0	0	0	0	488	516	563	15	
14	0	0	0	0	489	518	562	15	
15	0	0	0	0	489	520	562	15	
0	0	0	0	0	491	521	561	15	
1	0	0	0	0	491	521	560	15	
2	0	0	0	0	492	523	560	15	
3	0	0	0	0	494	526	559	15	
4	0	0	0	0	494	527	559	14	
5	0	0	0	0	495	527	558	15	
6	0	0	0	0	497	527	557	15	
7	0	0	0	0	498	527	556	15	
8	0	0	0	0	500	526	556	15	
9	0	0	0	0	502	522	556	15	
10	0	0	0	0	503	521	555	15	
11	0	0	0	0	505	521	554	15	
12	0	0	0	0	506	520	553	15	
13	0	0	0	0	508	517	553	15	
14	0	0	0	0	510	516	552	15	
15	0	0	0	0	512	517	551	15	
0	0	0	0	0	514	515	551	15	
1	0	0	0	0	516	511	551	15	
2	0	0	0	0	518	510	550	15	
3	0	0	0	0	520	508	549	15	
4	0	0	0	0	522	507	548	15	
5	0	0	0	0	525	505	548	15	
6	0	0	0	0	527	504	547	15	
7	0	0	0	0	530	505	547	15	
8	0	0	0	0	533	506	546	15	
9	0	0	0	0	535	507	545	15	
10	0	0	0	0	537	507	545	15	
11	0	0	0	0	540	505	544	15	
12	0	0	0	0	543	505	543	15	
13	0	0	0	0	545	505	543	15	
14	0	0	0	0	548	504	542	15	
15	0	0	0	0	551	507	542	15	
0	0	0	0	0	554	508	541	15	
1	0	0	0	0	556	508	540	15	
2	0	0	0	0	559	507	540	15	
3	0	0	0	0	562	507	539	15	
4	0	0	0	0	564	507	538	14	
5	0	0	0	0	567	505	537	15	
6	0	0	0	0	570	507	537	15	
7	0	0	0	0	572	507	536	15	
8	0	0	0	0	575	506	536	15	
9	0	0	0	0	578	508	535	15	
10	0	0	0	0	580	505	535	15	
11	0	0	0	0	583	503	534	15	
12	0	0	0	0	585	503	533	15	
13	0	0	0	0	588	502	532	15	
14	0	0	0	0	591	502	531	15	
15	0	0	0	0	593	506	531	15	
0	0	0	0	0	596	514	530	15	
1	0	0	0	0	598	518	530	15	
2	0	0	0	0	600	519	529	15	
3	0	0	0	0	604	521	528	15	
4	0	0	0	0	605	521	528	14	
5	0	0	0	0	608	525	527	15	
6	0	0	0	0	609	527	527	15	
7	0	0	0	0	611	526	526	15	
8	0	0	0	0	614	524	525	15	
9	0	0	0	0	615	521	524	15	
10	0	0	0	0	618	518	524	15	
11	0	0	0	0	619	517	523	15	
12	0	0	0	0	620	515	522	14	
13	0	0	0	0	623	516	521	15	
14	0	0	0	0	624	516	520	15	
15	0	0	0	0	625	515	519	15	
0	0	0	0	0	627	513	519	15	
1	0	0	0	0	628	513	518	15	
2	0	0	0	0	629	513	517	15	
3	0	0	0	0	631	512	516	15	
4	0	0	0	0	632	510	515	14	
5	0	0	0	0	633	510	514	15	
6	0	0	0	0	634	509	513	15	
7	0	0	0	0	635	508	512	15	
8	0	0	0	0	635	508	512	15	
9	0	0	0	0	636	511	511	15	
10	0	0	0	0	637	513	510	15	
11	0	0	0	0	638	512	508	15	
12	0	0	0	0	638	511	508	14	
13	0	0	0	0	638	508	506	15	
14	0	0	0	0	638	505	505	15	
15	0	0	0	0	639	501	504	15	
0	0	0	0	0	639	495	504	15	
1	0	0	0	0	639	494	502	15	
2	0	0	0	0	639	490	502	15	
3	0	0	0	0	639	489	500	15	
4	0	0	0	0	639	491	499	14	
5	0	0	0	0	638	496	498	15	
6	0	0	0	0	638	502	497	15	
7	0	0	0	0	638	506	496	15	
8	0	0	0	0	638	511	495	15	
9	0	0	0	0	637	515	494	15	
10	0	0	0	0	636	517	493	15	
11	0	0	0	0	636	515	492	15	
12	0	0	0	0	634	515	491	14	
13	0	0	0	0	633	515	490	15	
14	0	0	0	0	632	516	489	15	
15	0	0	0	0	631	520	487	15	
0	0	0	0	0	630	524	487	15	
1	0	0	0	0	628	524	486	15	
2	0	0	0	0	627	522	485	15	
3	0	0	0	0	626	518	483	15	
4	0	0	0	0	624	516	483	14	
5	0	0	0	0	623	516	482	15	
6	0	0	0	0	622	515	481	15	
7	0	0	0	0	620	515	480	15	
8	0	0	0	0	618	515	479	15	
9	0	0	0	0	617	513	478	15	
10	0	0	0	0	615	515	477	15	
11	0	0	0	0	614	517	476	15	
12	0	0	0	0	612	517	475	14	
13	0	0	0	0	610	516	473	15	
14	0	0	0	0	609	516	473	15	
15	0	0	0	0	606	516	472	15	
0	0	0	0	0	605	516	471	15	
1	0	0	0	0	603	519	471	15	
2	0	0	0	0	600	520	470	15	
3	0	0	0	0	598	520	468	15	
4	0	0	0	0	596	521	468	14	
5	0	0	0	0	594	522	467	15	
6	0	0	0	0	592	524	466	15	
7	0	0	0	0	589	524	465	15	
8	0	0	0	0	588	523	464	15	
9	0	0	0	0	585	521	463	15	
10	0	0	0	0	583	520	463	15	
11	0	0	0	0	581	519	462	15	
12	0	0	0	0	578	517	461	14	
13	0	0	0	0	576	515	460	15	
14	0	0	0	0	574	515	459	15	
15	0	0	0	0	571	515	459	15	
0	0	0	0	0	569	516	457	15	
1	0	0	0	0	567	517	457	14	
2	0	0	0	0	564	519	456	15	
3	0	0	0	0	561	521	455	15	
4	0	0	0	0	558	521	454	14	
5	0	0	0	0	556	519	453	15	
6	0	0	0	0	553	518	453	15	
7	0	0	0	0	551	516	452	15	
8	0	0	0	0	548	513	451	15	
9	0	0	0	0	546	511	450	15	
10	0	0	0	0	543	509	449	15	
11	0	0	0	0	542	509	448	14	
12	0	0	0	0	539	509	448	14	
13	0	0	0	0	536	507	447	15	
14	0	0	0	0	534	507	446	14	
15	0	0	0	0	531	509	445	15	
0	0	0	0	0	529	517	444	15	
1	0	0	0	0	527	529	443	15	
2	0	0	0	0	526	540	443	15	
3	0	0	0	0	523	543	441	14	
4	0	0	0	0	521	542	440	14	
5	0	0	0	0	518	537	440	15	
6	0	0	0	0	516	527	439	14	
7	0	0	0	0	514	519	438	15	
8	0	0	0	0	512	521	438	15	
9	0	0	0	0	510	520	436	15	
10	0	0	0	0	508	513	435	14	
11	0	0	0	0	505	504	435	14	
12	0	0	0	0	503	499	434	14	
13	0	0	0	0	502	497	433	14	
14	0	0	0	0	500	497	432	15	
15	0	0	0	0	498	499	431	14	
0	0	0	0	0	496	499	430	15	
1	0	0	0	0	494	499	430	14	
2	0	0	0	0	492	500	429	14	
3	0	0	0	0	491	501	428	14	
4	0	0	0	0	488	500	427	14	
5	0	0	0	0	487	500	426	15	
6	0	0	0	0	484	499	425	14	
7	0	0	0	0	483	496	424	15	
8	0	0	0	0	481	496	423	15	
9	0	0	0	0	480	498	422	14	
10	0	0	0	0	478	501	421	15	
11	0	0	0	0	477	503	420	14	
12	0	0	0	0	475	505	419	14	
13	0	0	0	0	474	508	418	15	
14	0	0	0	0	472	510	416	14	
15	0	0	0	0	470	511	415	14	
0	0	0	0	0	468	510	414	15	
1	0	0	0	0	467	508	413	14	
2	0	0	0	0	466	507	412	14	
3	0	0	0	0	465	504	411	15	
4	0	0	0	0	463	504	409	14	
5	0	0	0	0	462	505	408	14	
6	0	0	0	0	460	506	407	14	
7	0	0	0	0	460	507	406	15	
8	0	0	0	0	458	507	404	15	
9	0	0	0	0	457	505	403	14	
10	0	0	0	0	456	503	402	14	
11	0	0	0	0	455	499	400	14	
12	0	0	0	0	454	498	399	14	
13	0	0	0	0	453	497	398	14	
14	0	0	0	0	452	497	396	14	
15	0	0	0	0	451	496	395	14	
0	0	0	0	0	450	495	394	14	
1	0	0	0	0	449	493	392	14	
2	0	0	0	0	448	490	391	14	
3	0	0	0	0	448	486	390	14	
4	0	0	0	0	447	482	388	14	
5	0	0	0	0	445	480	387	14	
6	0	0	0	0	445	479	386	14	
7	0	0	0	0	444	478	384	14	
8	0	0	0	0	444	477	383	15	
9	0	0	0	0	443	478	382	14	
10	0	0	0	0	443	483	380	14	
11	0	0	0	0	443	488	379	14	
12	0	0	0	0	441	494	378	14	
13	0	0	0	0	441	501	377	14	
14	0	0	0	0	441	511	376	14	
15	0	0	0	0	440	525	375	14	
0	0	0	0	0	441	540	373	15	
1	0	0	0	0	440	556	371	14	
2	0	0	0	0	440	574	371	14	
3	0	0	0	0	440	590	370	14	
4	0	0	0	0	439	608	368	14	
5	0	0	0	0	439	625	367	14	
6	0	0	0	0	439	640	366	14	
7	0	0	0	0	439	656	365	14	
8	0	0	0	0	439	671	364	15	
9	0	0	0	0	439	686	363	14	
10	0	0	0	0	439	700	361	14	
11	0	0	0	0	439	711	360	14	
12	0	0	0	0	438	717	360	14	
13	0	0	0	0	439	720	359	14	
14	0	0	0	0	438	720	358	14	
15	0	0	0	0	438	719	356	14	
0	0	0	0	0	438	716	355	15	
1	0	0	0	0	438	709	354	14	
2	0	0	0	0	438	696	353	14	
3	0	0	0	0	438	680	353	14	
4	0	0	0	0	438	659	352	14	
5	0	0	0	0	438	633	351	14	
6	0	0	0	0	438	608	350	14	
7	0	0	0	0	438	587	348	14	
8	0	0	0	0	438	566	347	14	
9	0	0	0	0	439	546	347	14	
10	0	0	0	0	438	528	345	14	
11	0	0	0	0	439	514	345	14	
12	0	0	0	0	438	503	344	14	
13	0	0	0	0	438	495	343	14	
14	0	0	0	0	438	487	342	14	
15	0	0	0	0	438	480	341	14	
0	0	0	0	0	438	473	340	14	
1	0	0	0	0	438	466	339	14	
2	0	0	0	0	438	461	339	14	
3	0	0	0	0	438	457	338	14	
4	0	0	0	0	438	455	337	14	
5	0	0	0	0	439	455	336	14	
6	0	0	0	0	439	455	335	14	
7	0	0	0	0	439	455	335	14	
8	0	0	0	0	439	457	334	15	
9	0	0	0	0	439	459	333	14	
10	0	0	0	0	439	462	332	14	
11	0	0	0	0	440	464	331	14	
12	0	0	0	0	440	465	331	14	
13	0	0	0	0	440	464	330	14	
14	0	0	0	0	441	460	329	14	
15	0	0	0	0	440	454	329	14	
0	0	0	0	0	442	446	328	14	
1	0	0	0	0	443	441	327	14	
2	0	0	0	0	442	440	327	14	
3	0	0	0	0	443	440	326	14	
4	0	0	0	0	443	444	325	14	
5	0	0	0	0	443	449	325	14	
6	0	0	0	0	443	455	324	14	
7	0	0	0	0	444	460	323	14	
8	0	0	0	0	444	464	323	15	
9	0	0	0	0	444	468	322	14	
10	0	0	0	0	445	471	322	14	
11	0	0	0	0	445	474	321	14	
12	0	0	0	0	446	476	321	14	
13	0	0	0	0	446	478	320	14	
14	0	0	0	0	447	479	320	14	
15	0	0	0	0	447	479	319	14	
0	0	0	0	0	448	479	319	15	
1	0	0	0	0	448	479	319	14	
2	0	0	0	0	449	480	318	14	
3	0	0	0	0	450	480	318	14	
4	0	0	0	0	450	480	318	14	
5	0	0	0	0	450	480	317	14	
6	0	0	0	0	451	481	317	14	
7	0	0	0	0	451	481	316	14	
8	0	0	0	0	451	482	316	15	
9	0	0	0	0	452	481	316	14	
10	0	0	0	0	452	480	315	14	
11	0	0	0	0	453	479	315	14	
12	0	0	0	0	454	478	315	14	
13	0	0	0	0	454	477	314	14	
14	0	0	0	0	454	476	314	14	
15	0	0	0	0	455	476	314	14	
0	0	0	0	0	455	476	314	15	
1	0	0	0	0	456	476	313	14	
2	0	0	0	0	456	476	313	14	
3	0	0	0	0	457	476	313	14	
4	0	0	0	0	457	475	313	14	
5	0	0	0	0	458	476	312	14	
6	0	0	0	0	458	476	312	14	
7	0	0	0	0	458	477	312	14	
8	0	0	0	0	459	477	312	15	
9	0	0	0	0	460	477	311	14	
10	0	0	0	0	461	477	311	14	
11	0	0	0	0	461	477	311	14	
12	0	0	0	0	462	477	310	14	
13	0	0	0	0	462	477	311	14	
14	0	0	0	0	463	478	310	14	
15	0	0	0	0	463	479	310	14	
0	0	0	0	0	464	479	310	15	
1	0	0	0	0	465	480	309	14	
2	0	0	0	0	466	480	310	14	
3	0	0	0	0	466	479	309	14	
4	0	0	0	0	467	478	309	14	
5	0	0	0	0	467	478	308	14	
6	0	0	0	0	468	476	308	14	
7	0	0	0	0	468	475	308	14	
8	0	0	0	0	468	474	308	14	
9	0	0	0	0	469	473	308	14	
10	0	0	0	0	470	472	308	14	
11	0	0	0	0	471	471	307	14	
12	0	0	0	0	471	471	307	14	
13	0	0	0	0	472	470	307	14	
14	0	0	0	0	472	469	307	14	
15	0	0	0	0	472	468	307	14	
0	0	0	0	0	473	466	307	15	
1	0	0	0	0	473	464	307	14	
2	0	0	0	0	474	462	307	14	
3	0	0	0	0	475	460	307	14	
4	0	0	0	0	475	460	307	14	
5	0	0	0	0	475	462	306	14	
6	0	0	0	0	476	465	306	14	
7	0	0	0	0	477	468	305	14	
8	0	0	0	0	477	471	305	15	
9	0	0	0	0	478	475	305	14	
10	0	0	0	0	479	477	305	14	
11	0	0	0	0	479	479	305	14	
12	0	0	0	0	480	479	305	14	
13	0	0	0	0	481	480	304	14	
14	0	0	0	0	481	481	304	14	
15	0	0	0	0	482	483	304	14	
0	0	0	0	0	483	484	304	15	
1	0	0	0	0	484	484	304	14	
2	0	0	0	0	486	486	304	14	
3	0	0	0	0	487	486	304	14	
4	0	0	0	0	487	488	303	14	
5	0	0	0	0	488	491	304	14	
6	0	0	0	0	489	493	303	14	
7	0	0	0	0	490	494	303	14	
8	0	0	0	0	492	495	303	14	
9	0	0	0	0	492	496	303	14	
10	0	0	0	0	493	496	303	14	
11	0	0	0	0	494	495	303	14	
12	0	0	0	0	495	495	303	14	
13	0	0	0	0	496	495	303	14	
14	0	0	0	0	497	495	302	14	
15	0	0	0	0	498	495	302	14	
0	0	0	0	0	499	495	302	15	
1	0	0	0	0	499	495	302	14	
2	0	0	0	0	500	494	302	14	
3	0	0	0	0	501	492	302	14	
4	0	0	0	0	502	491	302	14	
5	0	0	0	0	503	489	302	14	
6	0	0	0	0	503	487	302	14	
7	0	0	0	0	503	487	302	14	
8	0	0	0	0	504	488	301	15	
9	0	0	0	0	504	490	301	14	
10	0	0	0	0	505	492	301	14	
11	0	0	0	0	507	494	301	14	
12	0	0	0	0	507	495	301	14	
13	0	0	0	0	507	496	301	14	
14	0	0	0	0	507	496	301	14	
15	0	0	0	0	508	495	300	14	
0	0	0	0	0	508	494	300	15	
1	0	0	0	0	509	492	300	14	
2	0	0	0	0	510	492	300	14	
3	0	0	0	0	510	492	300	14	
4	0	0	0	0	511	492	300	14	
5	0	0	0	0	512	491	300	14	
6	0	0	0	0	512	489	300	14	
7	0	0	0	0	512	489	300	14	
8	0	0	0	0	512	489	299	15	
9	0	0	0	0	513	489	299	14	
10	0	0	0	0	514	490	299	14	
11	0	0	0	0	514	492	299	14	
12	0	0	0	0	514	494	299	14	
13	0	0	0	0	513	494	298	14	
14	0	0	0	0	515	494	299	14	
15	0	0	0	0	515	496	299	14	
0	0	0	0	0	515	496	298	15	
1	0	0	0	0	516	496	299	14	
2	0	0	0	0	516	496	298	14	
3	0	0	0	0	517	495	299	14	
4	0	0	0	0	517	496	298	14	
5	0	0	0	0	517	495	298	14	
6	0	0	0	0	518	495	298	14	
7	0	0	0	0	518	495	298	14	
8	0	0	0	0	519	494	298	14	
9	0	0	0	0	519	493	298	14	
10	0	0	0	0	519	493	299	14	
11	0	0	0	0	520	493	298	14	
12	0	0	0	0	520	492	298	14	
13	0	0	0	0	521	492	298	14	
14	0	0	0	0	521	492	298	14	
15	0	0	0	0	521	491	298	14	
0	0	0	0	0	522	489	299	14	
1	0	0	0	0	522	486	298	14	
2	0	0	0	0	522	483	298	14	
3	0	0	0	0	523	481	299	14	
4	0	0	0	0	523	477	299	14	
5	0	0	0	0	524	475	298	14	
6	0	0	0	0	524	474	299	14	
7	0	0	0	0	524	475	299	14	
8	0	0	0	0	524	478	299	15	
9	0	0	0	0	524	480	299	14	
10	0	0	0	0	525	483	299	14	
11	0	0	0	0	525	487	300	14	
12	0	0	0	0	526	494	299	14	
13	0	0	0	0	526	502	300	14	
14	0	0	0	0	526	506	300	14	
15	0	0	0	0	527	510	300	14	
0	0	0	0	0	527	513	299	14	
1	0	0	0	0	527	513	300	14	
2	0	0	0	0	528	511	300	14	
3	0	0	0	0	528	509	301	14	
4	0	0	0	0	528	507	301	14	
5	0	0	0	0	529	505	300	14	
6	0	0	0	0	531	506	301	14	
7	0	0	0	0	531	506	301	14	
8	0	0	0	0	532	507	302	14	
9	0	0	0	0	533	507	302	14	
10	0	0	0	0	533	507	302	14	
11	0	0	0	0	534	508	302	14	
12	0	0	0	0	535	508	302	14	
13	0	0	0	0	536	508	303	14	
14	0	0	0	0	537	507	303	14	
15	0	0	0	0	538	506	303	14	
0	0	0	0	0	539	505	304	15	
1	0	0	0	0	540	504	304	14	
2	0	0	0	0	542	504	304	14	
3	0	0	0	0	543	504	304	14	
4	0	0	0	0	544	502	304	14	
5	0	0	0	0	545	501	305	14	
6	0	0	0	0	547	499	305	14	
7	0	0	0	0	547	499	305	14	
8	0	0	0	0	549	498	305	15	
9	0	0	0	0	550	498	306	14	
10	0	0	0	0	551	497	306	14	
11	0	0	0	0	553	497	307	14	
12	0	0	0	0	554	498	306	14	
13	0	0	0	0	556	498	307	14	
14	0	0	0	0	558	497	307	14	
15	0	0	0	0	559	497	307	14	
0	0	0	0	0	560	498	307	15	
1	0	0	0	0	563	498	308	14	
2	0	0	0	0	564	498	308	14	
3	0	0	0	0	566	497	309	14	
4	0	0	0	0	568	496	309	14	
5	0	0	0	0	569	496	309	14	
6	0	0	0	0	572	496	310	14	
7	0	0	0	0	573	495	310	14	
8	0	0	0	0	575	495	310	14	
9	0	0	0	0	577	495	311	14	
10	0	0	0	0	580	495	311	14	
11	0	0	0	0	582	493	311	14	
12	0	0	0	0	584	492	311	14	
13	0	0	0	0	586	490	312	14	
14	0	0	0	0	588	488	312	14	
15	0	0	0	0	590	487	313	14	
0	0	0	0	0	592	485	312	14	
1	0	0	0	0	594	484	313	14	
2	0	0	0	0	596	484	313	14	
3	0	0	0	0	599	484	314	14	
4	0	0	0	0	601	485	315	14	
5	0	0	0	0	603	486	315	14	
6	0	0	0	0	605	486	315	14	
7	0	0	0	0	607	487	316	14	
8	0	0	0	0	609	487	316	15	
9	0	0	0	0	611	487	317	14	
10	0	0	0	0	613	486	317	14	
11	0	0	0	0	615	484	318	14	
12	0	0	0	0	617	483	318	14	
13	0	0	0	0	619	481	318	14	
14	0	0	0	0	621	481	319	14	
15	0	0	0	0	623	483	319	14	
0	0	0	0	0	624	484	320	14	
1	0	0	0	0	625	487	321	14	
2	0	0	0	0	628	489	321	14	
3	0	0	0	0	630	492	321	14	
4	0	0	0	0	631	496	322	14	
5	0	0	0	0	632	498	322	14	
6	0	0	0	0	634	499	323	14	
7	0	0	0	0	635	499	323	14	
8	0	0	0	0	636	499	324	15	
9	0	0	0	0	638	499	324	14	
10	0	0	0	0	639	500	325	14	
11	0	0	0	0	640	501	326	14	
12	0	0	0	0	640	502	326	14	
13	0	0	0	0	641	503	327	14	
14	0	0	0	0	642	503	327	14	
15	0	0	0	0	643	502	327	14	
0	0	0	0	0	643	501	328	15	
1	0	0	0	0	644	499	328	14	
2	0	0	0	0	645	497	329	14	
3	0	0	0	0	645	497	330	14	
4	0	0	0	0	646	500	331	14	
5	0	0	0	0	646	503	331	14	
6	0	0	0	0	646	505	332	14	
7	0	0	0	0	647	508	332	14	
8	0	0	0	0	646	510	332	15	
9	0	0	0	0	646	509	334	14	
10	0	0	0	0	647	505	334	14	
11	0	0	0	0	647	499	335	14	
12	0	0	0	0	647	495	335	14	
13	0	0	0	0	646	494	336	14	
14	0	0	0	0	646	494	337	14	
15	0	0	0	0	646	495	337	14	
0	0	0	0	0	644	497	338	15	
1	0	0	0	0	644	499	339	14	
2	0	0	0	0	643	496	339	14	
3	0	0	0	0	643	495	340	14	
4	0	0	0	0	643	496	340	14	
5	0	0	0	0	641	495	341	15	
6	0	0	0	0	641	493	342	14	
7	0	0	0	0	640	492	343	14	
8	0	0	0	0	638	491	344	14	
9	0	0	0	0	638	492	344	14	
10	0	0	0	0	636	498	345	14	
11	0	0	0	0	635	504	346	14	
12	0	0	0	0	633	510	347	14	
13	0	0	0	0	632	513	348	14	
14	0	0	0	0	630	515	348	14	
15	0	0	0	0	628	519	350	14	
0	0	0	0	0	628	522	350	15	
1	0	0	0	0	626	528	351	14	
2	0	0	0	0	625	528	352	14	
3	0	0	0	0	623	521	353	14	
4	0	0	0	0	621	513	354	14	
5	0	0	0	0	620	512	355	14	
6	0	0	0	0	618	513	355	14	
7	0	0	0	0	616	518	357	14	
8	0	0	0	0	614	523	358	15	
9	0	0	0	0	612	518	359	14	
10	0	0	0	0	610	510	360	14	
11	0	0	0	0	608	504	361	14	
12	0	0	0	0	606	502	361	14	
13	0	0	0	0	604	497	363	14	
14	0	0	0	0	602	493	364	14	
15	0	0	0	0	600	489	365	14	
0	0	0	0	0	598	488	366	15	
1	0	0	0	0	595	487	367	14	
2	0	0	0	0	593	486	368	14	
3	0	0	0	0	591	486	369	14	
4	0	0	0	0	589	487	370	14	
5	0	0	0	0	587	489	371	14	
6	0	0	0	0	584	490	372	15	
7	0	0	0	0	582	491	373	14	
8	0	0	0	0	579	491	374	15	
9	0	0	0	0	577	494	375	14	
10	0	0	0	0	575	495	375	14	
11	0	0	0	0	573	494	376	14	
12	0	0	0	0	571	495	377	14	
13	0	0	0	0	569	497	378	14	
14	0	0	0	0	567	498	379	14	
15	0	0	0	0	564	500	379	14	
0	0	0	0	0	562	502	380	15	
1	0	0	0	0	560	503	380	14	
2	0	0	0	0	558	504	380	14	
3	0	0	0	0	556	505	381	14	
4	0	0	0	0	554	505	381	14	
5	0	0	0	0	552	506	381	14	
6	0	0	0	0	550	506	381	14	
7	0	0	0	0	548	505	381	14	
8	0	0	0	0	546	504	382	15	
9	0	0	0	0	543	504	381	14	
10	0	0	0	0	542	504	381	14	
11	0	0	0	0	540	504	381	14	
12	0	0	0	0	538	504	381	14	
13	0	0	0	0	537	505	381	14	
14	0	0	0	0	535	506	380	14	
15	0	0	0	0	533	507	380	15	
0	0	0	0	0	531	505	380	15	
1	0	0	0	0	529	504	380	15	
2	0	0	0	0	527	503	379	14	
3	0	0	0	0	526	503	379	14	
4	0	0	0	0	524	502	378	14	
5	0	0	0	0	522	500	377	14	
6	0	0	0	0	520	502	377	14	
7	0	0	0	0	518	504	376	14	
8	0	0	0	0	517	510	376	15	
9	0	0	0	0	515	516	376	15	
10	0	0	0	0	513	522	375	14	
11	0	0	0	0	512	524	374	14	
12	0	0	0	0	511	525	374	14	
13	0	0	0	0	509	524	373	14	
14	0	0	0	0	508	523	373	14	
15	0	0	0	0	506	522	372	14	
0	0	0	0	0	505	521	372	15	
1	0	0	0	0	504	519	371	15	
2	0	0	0	0	502	516	371	14	
3	0	0	0	0	501	513	370	14	
4	0	0	0	0	499	511	370	14	
5	0	0	0	0	498	510	369	14	
6	0	0	0	0	497	508	368	14	
7	0	0	0	0	496	507	368	14	
8	0	0	0	0	495	507	368	15	
9	0	0	0	0	494	508	367	14	
10	0	0	0	0	493	510	366	14	
11	0	0	0	0	493	510	366	14	
12	0	0	0	0	491	511	366	14	
13	0	0	0	0	490	511	365	14	
14	0	0	0	0	489	512	365	14	
15	0	0	0	0	487	512	365	14	
0	0	0	0	0	487	512	364	15	
1	0	0	0	0	486	512	364	14	
2	0	0	0	0	485	513	364	14	
3	0	0	0	0	485	513	363	14	
4	0	0	0	0	483	514	363	14	
5	0	0	0	0	483	514	363	14	
6	0	0	0	0	482	513	362	14	
7	0	0	0	0	481	513	362	14	
8	0	0	0	0	480	512	362	15	
9	0	0	0	0	480	511	361	14	
10	0	0	0	0	479	510	361	14	
11	0	0	0	0	479	507	361	14	
12	0	0	0	0	478	504	361	14	
13	0	0	0	0	478	500	361	14	
14	0	0	0	0	477	498	361	14	
15	0	0	0	0	476	495	361	14	
0	0	0	0	0	476	491	361	15	
1	0	0	0	0	476	487	360	14	
2	0	0	0	0	475	483	360	14	
3	0	0	0	0	474	480	360	14	
4	0	0	0	0	473	478	360	14	
5	0	0	0	0	473	475	360	14	
6	0	0	0	0	473	473	360	14	
7	0	0	0	0	472	473	360	14	
8	0	0	0	0	472	473	360	15	
9	0	0	0	0	472	475	360	15	
10	0	0	0	0	472	479	360	14	
11	0	0	0	0	472	482	360	14	
12	0	0	0	0	471	487	360	14	
13	0	0	0	0	471	495	360	14	
14	0	0	0	0	471	503	360	15	
15	0	0	0	0	471	512	361	14	
0	0	0	0	0	471	523	361	15	
1	0	0	0	0	471	536	361	14	
2	0	0	0	0	471	550	361	14	
3	0	0	0	0	471	566	361	14	
4	0	0	0	0	470	583	361	14	
5	0	0	0	0	471	602	362	14	
6	0	0	0	0	471	621	362	14	
7	0	0	0	0	470	639	363	15	
8	0	0	0	0	470	655	363	15	
9	0	0	0	0	470	670	363	14	
10	0	0	0	0	470	685	364	14	
11	0	0	0	0	470	700	364	14	
12	0	0	0	0	470	714	364	14	
13	0	0	0	0	471	726	365	14	
14	0	0	0	0	471	733	365	14	
15	0	0	0	0	470	736	365	14	
0	0	0	0	0	471	736	366	14	
1	0	0	0	0	470	735	367	14	
2	0	0	0	0	471	730	367	14	
3	0	0	0	0	471	720	367	14	
4	0	0	0	0	471	707	368	14	
5	0	0	0	0	472	690	368	14	
6	0	0	0	0	472	669	369	14	
7	0	0	0	0	472	644	370	14	
8	0	0	0	0	472	619	370	15	
9	0	0	0	0	472	597	371	14	
10	0	0	0	0	473	578	371	14	
11	0	0	0	0	473	560	372	14	
12	0	0	0	0	473	543	372	14	
13	0	0	0	0	474	530	373	14	
14	0	0	0	0	475	519	374	14	
15	0	0	0	0	475	510	374	14	
0	0	0	0	0	475	500	375	15	
1	0	0	0	0	475	492	375	15	
2	0	0	0	0	475	483	376	14	
3	0	0	0	0	476	476	376	14	
4	0	0	0	0	476	470	377	14	
5	0	0	0	0	477	464	377	14	
6	0	0	0	0	478	461	378	14	
7	0	0	0	0	478	457	378	15	
8	0	0	0	0	477	453	379	15	
9	0	0	0	0	478	451	379	14	
10	0	0	0	0	478	450	380	14	
11	0	0	0	0	479	450	380	15	
12	0	0	0	0	479	451	380	14	
13	0	0	0	0	479	452	381	14	
14	0	0	0	0	480	455	381	14	
15	0	0	0	0	480	457	382	14	
0	0	0	0	0	480	460	382	15	
1	0	0	0	0	480	462	383	14	
2	0	0	0	0	480	463	383	14	
3	0	0	0	0	481	464	383	14	
4	0	0	0	0	480	465	383	14	
5	0	0	0	0	481	467	383	14	
6	0	0	0	0	481	468	383	14	
7	0	0	0	0	482	469	384	14	
8	0	0	0	0	481	471	384	15	
9	0	0	0	0	482	472	384	14	
10	0	0	0	0	483	473	384	14	
11	0	0	0	0	483	475	384	14	
12	0	0	0	0	483	476	385	14	
13	0	0	0	0	483	476	385	14	
14	0	0	0	0	483	477	385	14	
15	0	0	0	0	483	478	385	14	
0	0	0	0	0	484	478	385	15	
1	0	0	0	0	483	478	385	14	
2	0	0	0	0	483	478	385	14	
3	0	0	0	0	484	478	385	14	
4	0	0	0	0	484	477	385	14	
5	0	0	0	0	484	476	385	14	
6	0	0	0	0	484	475	385	14	
7	0	0	0	0	484	473	385	14	
8	0	0	0	0	485	472	385	15	
9	0	0	0	0	485	471	386	15	
10	0	0	0	0	486	470	385	14	
11	0	0	0	0	486	470	385	14	
12	0	0	0	0	486	471	386	14	
13	0	0	0	0	486	472	386	14	
14	0	0	0	0	487	474	386	14	
15	0	0	0	0	487	477	386	14	
0	0	0	0	0	486	480	386	15	
1	0	0	0	0	487	482	386	14	
2	0	0	0	0	487	485	386	14	
3	0	0	0	0	487	486	386	14	
4	0	0	0	0	488	487	387	14	
5	0	0	0	0	488	488	387	14	
6	0	0	0	0	488	488	387	14	
7	0	0	0	0	488	488	387	14	
8	0	0	0	0	489	488	387	15	
9	0	0	0	0	489	487	387	14	
10	0	0	0	0	489	486	387	14	
11	0	0	0	0	490	484	387	14	
12	0	0	0	0	490	483	387	14	
13	0	0	0	0	490	481	388	15	
14	0	0	0	0	490	480	388	15	
15	0	0	0	0	491	479	389	14	
0	0	0	0	0	491	479	389	15	
1	0	0	0	0	491	479	390	14	
2	0	0	0	0	491	480	390	14	
3	0	0	0	0	492	481	390	14	
4	0	0	0	0	492	484	390	14	
5	0	0	0	0	492	486	391	14	
6	0	0	0	0	492	488	391	14	
7	0	0	0	0	493	490	391	15	
8	0	0	0	0	493	491	391	15	
9	0	0	0	0	493	492	392	14	
10	0	0	0	0	493	492	393	14	
11	0	0	0	0	494	492	393	14	
12	0	0	0	0	494	491	393	14	
13	0	0	0	0	494	492	394	14	
14	0	0	0	0	494	492	395	14	
15	0	0	0	0	494	492	395	14	
0	0	0	0	0	495	492	395	15	
1	0	0	0	0	495	492	396	14	
2	0	0	0	0	496	491	396	14	
3	0	0	0	0	496	491	396	14	
4	0	0	0	0	496	490	398	14	
5	0	0	0	0	496	490	398	14	
6	0	0	0	0	497	489	399	14	
7	0	0	0	0	497	489	399	14	
8	0	0	0	0	497	489	399	15	
9	0	0	0	0	498	489	400	14	
10	0	0	0	0	498	489	400	14	
11	0	0	0	0	499	489	401	14	
12	0	0	0	0	499	489	401	14	
13	0	0	0	0	499	489	402	15	
14	0	0	0	0	500	489	403	14	
15	0	0	0	0	500	491	403	15	
0	0	0	0	0	500	493	404	15	
1	0	0	0	0	500	494	404	14	
2	0	0	0	0	500	495	405	15	
3	0	0	0	0	501	495	406	14	
4	0	0	0	0	502	496	406	14	
5	0	0	0	0	502	496	407	14	
6	0	0	0	0	502	496	408	14	
7	0	0	0	0	503	496	408	14	
8	0	0	0	0	503	496	408	15	
9	0	0	0	0	504	497	408	14	
10	0	0	0	0	504	497	409	14	
11	0	0	0	0	504	498	410	14	
12	0	0	0	0	504	499	410	14	
13	0	0	0	0	504	499	411	14	
14	0	0	0	0	505	499	411	15	
15	0	0	0	0	505	499	412	15	
0	0	0	0	0	505	499	412	15	
1	0	0	0	0	505	499	413	14	
2	0	0	0	0	506	499	413	14	
3	0	0	0	0	506	499	414	14	
4	0	0	0	0	506	500	414	14	
5	0	0	0	0	506	501	414	14	
6	0	0	0	0	507	501	415	14	
7	0	0	0	0	507	501	415	14	
8	0	0	0	0	506	501	416	15	
9	0	0	0	0	507	502	416	15	
10	0	0	0	0	507	501	417	14	
11	0	0	0	0	507	500	417	14	
12	0	0	0	0	507	500	417	14	
13	0	0	0	0	507	499	417	14	
14	0	0	0	0	507	500	418	14	
15	0	0	0	0	507	501	418	15	
0	0	0	0	0	507	500	418	15	
1	0	0	0	0	508	501	419	14	
2	0	0	0	0	507	501	419	14	
3	0	0	0	0	508	501	419	14	
4	0	0	0	0	508	500	420	14	
5	0	0	0	0	508	499	420	14	
6	0	0	0	0	507	499	421	14	
7	0	0	0	0	508	499	421	15	
8	0	0	0	0	508	500	421	15	
9	0	0	0	0	509	502	421	14	
10	0	0	0	0	508	503	422	14	
11	0	0	0	0	508	504	422	14	
12	0	0	0	0	508	505	422	14	
13	0	0	0	0	508	506	423	15	
14	0	0	0	0	509	508	423	15	
15	0	0	0	0	508	509	423	14	
0	0	0	0	0	508	510	423	15	
1	0	0	0	0	508	511	423	14	
2	0	0	0	0	508	512	424	15	
3	0	0	0	0	509	512	424	15	
4	0	0	0	0	509	512	424	14	
5	0	0	0	0	509	513	425	14	
6	0	0	0	0	509	513	425	14	
7	0	0	0	0	509	513	425	15	
8	0	0	0	0	509	513	426	15	
9	0	0	0	0	509	513	426	14	
10	0	0	0	0	509	514	427	14	
11	0	0	0	0	509	513	427	14	
12	0	0	0	0	509	514	428	14	
13	0	0	0	0	509	514	428	14	
14	0	0	0	0	510	514	428	14	
15	0	0	0	0	510	515	428	14	
0	0	0	0	0	509	515	429	15	
1	0	0	0	0	510	515	430	14	
2	0	0	0	0	509	515	430	15	
3	0	0	0	0	509	514	431	14	
4	0	0	0	0	509	514	431	14	
5	0	0	0	0	509	514	432	15	
6	0	0	0	0	510	514	432	14	
7	0	0	0	0	509	514	433	14	
8	0	0	0	0	509	514	433	15	
9	0	0	0	0	509	514	434	14	
10	0	0	0	0	508	514	435	15	
11	0	0	0	0	509	514	435	15	
12	0	0	0	0	508	514	436	14	
13	0	0	0	0	508	515	436	14	
14	0	0	0	0	508	515	438	14	
15	0	0	0	0	508	515	438	15	
0	0	0	0	0	508	515	439	15	
1	0	0	0	0	508	514	440	15	
2	0	0	0	0	507	515	440	15	
3	0	0	0	0	508	515	441	14	
4	0	0	0	0	507	514	442	14	
5	0	0	0	0	507	514	443	15	
6	0	0	0	0	506	514	443	14	
7	0	0	0	0	506	513	444	14	
8	0	0	0	0	507	513	445	15	
9	0	0	0	0	506	513	446	15	
10	0	0	0	0	507	513	447	15	
11	0	0	0	0	506	513	448	15	
12	0	0	0	0	506	513	448	14	
13	0	0	0	0	506	513	449	14	
14	0	0	0	0	506	513	450	15	
15	0	0	0	0	506	514	451	15	
0	0	0	0	0	506	513	452	15	
1	0	0	0	0	506	514	453	15	
2	0	0	0	0	506	513	454	15	
3	0	0	0	0	507	513	455	15	
4	0	0	0	0	507	513	456	14	
5	0	0	0	0	507	512	457	15	
6	0	0	0	0	507	512	458	14	
7	0	0	0	0	508	511	459	14	
8	0	0	0	0	508	510	460	15	
9	0	0	0	0	509	510	461	15	
10	0	0	0	0	510	510	462	15	
11	0	0	0	0	510	508	463	15	
12	0	0	0	0	511	507	464	14	
13	0	0	0	0	511	506	465	15	
14	0	0	0	0	512	506	466	15	
15	0	0	0	0	513	505	467	15	
0	0	0	0	0	514	505	468	15	
1	0	0	0	0	515	505	469	15	
2	0	0	0	0	515	505	471	15	
3	0	0	0	0	517	505	472	15	
4	0	0	0	0	518	505	472	14	
5	0	0	0	0	519	504	474	15	
6	0	0	0	0	520	504	475	14	
7	0	0	0	0	521	503	476	15	
8	0	0	0	0	523	503	477	15	
9	0	0	0	0	524	503	478	15	
10	0	0	0	0	525	504	479	15	
11	0	0	0	0	527	503	480	15	
12	0	0	0	0	527	503	481	14	
13	0	0	0	0	530	502	483	15	
14	0	0	0	0	530	501	483	15	
15	0	0	0	0	532	500	484	15	
0	0	0	0	0	534	499	486	15	
1	0	0	0	0	536	499	487	15	
2	0	0	0	0	537	498	488	15	
3	0	0	0	0	540	497	489	15	
4	0	0	0	0	541	497	490	14	
5	0	0	0	0	542	499	492	15	
6	0	0	0	0	544	499	492	15	
7	0	0	0	0	546	500	494	15	
8	0	0	0	0	547	502	495	15	
9	0	0	0	0	550	503	496	15	
10	0	0	0	0	551	503	497	15	
11	0	0	0	0	553	503	499	15	
12	0	0	0	0	555	503	500	14	
13	0	0	0	0	556	502	502	15	
14	0	0	0	0	558	501	503	15	
15	0	0	0	0	560	501	504	15	
0	0	0	0	0	562	500	505	15	
1	0	0	0	0	564	500	507	15	
2	0	0	0	0	566	500	508	15	
3	0	0	0	0	567	500	510	15	
4	0	0	0	0	568	499	511	14	
5	0	0	0	0	569	498	512	15	
6	0	0	0	0	572	497	514	15	
7	0	0	0	0	573	495	515	15	
8	0	0	0	0	575	494	516	15	
9	0	0	0	0	576	493	518	15	
10	0	0	0	0	578	491	519	15	
11	0	0	0	0	580	490	521	15	
12	0	0	0	0	580	489	523	14	
13	0	0	0	0	583	489	525	15	
14	0	0	0	0	584	489	526	15	
15	0	0	0	0	585	489	527	15	
0	0	0	0	0	587	489	529	15	
1	0	0	0	0	588	490	531	15	
2	0	0	0	0	589	492	533	15	
3	0	0	0	0	590	492	535	15	
4	0	0	0	0	591	493	536	15	
5	0	0	0	0	592	494	538	15	
6	0	0	0	0	593	495	540	15	
7	0	0	0	0	594	496	542	15	
8	0	0	0	0	594	496	543	15	
9	0	0	0	0	595	495	545	15	
10	0	0	0	0	595	495	547	15	
11	0	0	0	0	596	495	549	15	
12	0	0	0	0	596	494	551	15	
13	0	0	0	0	598	494	552	15	
14	0	0	0	0	597	494	555	15	
15	0	0	0	0	598	494	556	15	
0	0	0	0	0	598	493	558	15	
1	0	0	0	0	598	492	560	15	
2	0	0	0	0	598	492	561	15	
3	0	0	0	0	599	491	563	15	
4	0	0	0	0	599	491	566	15	
5	0	0	0	0	599	491	568	15	
6	0	0	0	0	599	491	569	15	
7	0	0	0	0	599	491	571	15	
8	0	0	0	0	599	492	573	15	
9	0	0	0	0	599	492	575	15	
10	0	0	0	0	599	492	577	15	
11	0	0	0	0	599	491	579	15	
12	0	0	0	0	598	492	580	15	
13	0	0	0	0	598	491	582	15	
14	0	0	0	0	598	492	584	15	
15	0	0	0	0	597	492	586	15	
0	0	0	0	0	597	492	588	15	
1	0	0	0	0	596	492	590	15	
2	0	0	0	0	595	492	592	15	
3	0	0	0	0	596	492	594	15	
4	0	0	0	0	594	492	595	15	
5	0	0	0	0	593	493	598	15	
6	0	0	0	0	593	493	600	15	
7	0	0	0	0	592	493	601	15	
8	0	0	0	0	591	492	603	15	
9	0	0	0	0	590	492	605	15	
10	0	0	0	0	590	492	607	15	
11	0	0	0	0	589	492	609	15	
12	0	0	0	0	588	492	610	15	
13	0	0	0	0	587	492	612	15	
14	0	0	0	0	587	493	614	15	
15	0	0	0	0	585	493	616	15	
0	0	0	0	0	584	494	618	15	
1	0	0	0	0	583	494	620	15	
2	0	0	0	0	582	494	622	15	
3	0	0	0	0	582	495	623	15	
4	0	0	0	0	580	495	625	15	
5	0	0	0	0	579	495	627	15	
6	0	0	0	0	578	494	629	15	
7	0	0	0	0	577	494	631	15	
8	0	0	0	0	576	494	633	15	
9	0	0	0	0	575	494	634	15	
10	0	0	0	0	574	494	636	15	
11	0	0	0	0	573	495	639	15	
12	0	0	0	0	571	495	641	15	
13	0	0	0	0	570	495	643	15	
14	0	0	0	0	569	494	644	15	
15	0	0	0	0	568	494	646	15	
0	0	0	0	0	567	494	648	15	
1	0	0	0	0	565	494	650	15	
2	0	0	0	0	564	494	652	15	
3	0	0	0	0	563	493	654	15	
4	0	0	0	0	562	493	655	15	
5	0	0	0	0	560	492	658	15	
6	0	0	0	0	559	492	660	15	
7	0	0	0	0	559	491	662	15	
8	0	0	0	0	557	491	664	15	
9	0	0	0	0	555	491	666	15	
10	0	0	0	0	555	490	668	15	
11	0	0	0	0	554	489	670	15	
12	0	0	0	0	551	489	671	15	
13	0	0	0	0	551	489	673	15	
14	0	0	0	0	550	489	675	15	
15	0	0	0	0	547	488	677	15	
0	0	0	0	0	547	488	679	15	
1	0	0	0	0	545	487	681	15	
2	0	0	0	0	543	487	683	15	
3	0	0	0	0	543	487	685	15	
4	0	0	0	0	541	487	687	15	
5	0	0	0	0	540	487	689	15	
6	0	0	0	0	539	487	691	15	
7	0	0	0	0	537	487	693	15	
8	0	0	0	0	536	487	694	15	
9	0	0	0	0	535	487	697	15	
10	0	0	0	0	534	487	698	15	
11	0	0	0	0	532	487	700	15	
12	0	0	0	0	530	487	702	15	
13	0	0	0	0	529	487	704	15	
14	0	0	0	0	528	487	706	15	
15	0	0	0	0	527	487	707	15	
0	0	0	0	0	525	487	709	15	
1	0	0	0	0	524	487	711	15	
2	0	0	0	0	523	486	713	15	
3	0	0	0	0	522	486	715	15	
4	0	0	0	0	520	487	717	15	
5	0	0	0	0	519	487	719	15	
6	0	0	0	0	518	487	721	15	
7	0	0	0	0	516	487	723	15	
8	0	0	0	0	515	488	725	15	
9	0	0	0	0	514	488	726	15	
10	0	0	0	0	513	489	728	15	
11	0	0	0	0	512	489	730	15	
12	0	0	0	0	510	489	732	15	
13	0	0	0	0	508	489	734	15	
14	0	0	0	0	508	490	736	15	
15	0	0	0	0	507	490	738	15	
0	0	0	0	0	504	490	739	15	
1	0	0	0	0	504	490	741	15	
2	0	0	0	0	503	491	743	15	
3	0	0	0	0	502	491	744	15	
4	0	0	0	0	500	490	747	15	
5	0	0	0	0	499	490	748	15	
6	0	0	0	0	498	489	750	15	
7	0	0	0	0	496	489	751	15	
8	0	0	0	0	496	489	753	16	
9	0	0	0	0	495	488	755	15	
10	0	0	0	0	494	487	757	15	
11	0	0	0	0	492	487	758	15	
12	0	0	0	0	491	486	760	15	
13	0	0	0	0	491	483	762	15	
14	0	0	0	0	490	481	764	15	
15	0	0	0	0	488	478	765	15	
0	0	0	0	0	487	474	767	15	
1	0	0	0	0	486	470	768	15	
2	0	0	0	0	486	466	770	15	
3	0	0	0	0	485	461	771	15	
4	0	0	0	0	484	457	773	15	
5	0	0	0	0	482	453	774	15	
6	0	0	0	0	481	449	776	15	
7	0	0	0	0	481	447	778	15	
8	0	0	0	0	480	447	779	16	
9	0	0	0	0	479	449	781	15	
10	0	0	0	0	478	454	783	15	
11	0	0	0	0	477	459	783	15	
12	0	0	0	0	477	467	785	15	
13	0	0	0	0	476	476	787	15	
14	0	0	0	0	476	488	788	15	
15	0	0	0	0	475	502	789	15	
0	0	0	0	0	474	516	791	16	
1	0	0	0	0	474	533	792	15	
2	0	0	0	0	473	550	793	15	
3	0	0	0	0	472	568	795	15	
4	0	0	0	0	472	587	796	15	
5	0	0	0	0	471	605	798	15	
6	0	0	0	0	471	622	799	15	
7	0	0	0	0	471	638	800	15	
8	0	0	0	0	470	655	802	16	
9	0	0	0	0	470	672	803	15	
10	0	0	0	0	469	687	804	15	
11	0	0	0	0	469	699	806	15	
12	0	0	0	0	469	707	806	15	
13	0	0	0	0	468	711	807	15	
14	0	0	0	0	468	711	808	15	
15	0	0	0	0	468	708	810	15	
0	0	0	0	0	468	702	811	16	
1	0	0	0	0	468	692	812	15	
2	0	0	0	0	467	678	813	15	
3	0	0	0	0	467	661	814	15	
4	0	0	0	0	467	642	815	15	
5	0	0	0	0	467	620	816	15	
6	0	0	0	0	468	598	817	15	
7	0	0	0	0	467	577	818	15	
8	0	0	0	0	467	558	819	16	
9	0	0	0	0	467	541	820	15	
10	0	0	0	0	467	525	821	16	
11	0	0	0	0	467	511	822	15	
12	0	0	0	0	467	500	823	15	
13	0	0	0	0	467	491	824	15	
14	0	0	0	0	467	484	825	15	
15	0	0	0	0	467	478	826	15	
0	0	0	0	0	467	470	827	16	
1	0	0	0	0	468	462	828	15	
2	0	0	0	0	468	455	829	15	
3	0	0	0	0	468	449	830	15	
4	0	0	0	0	468	445	831	15	
5	0	0	0	0	469	441	832	16	
6	0	0	0	0	468	438	832	16	
7	0	0	0	0	469	436	833	15	
8	0	0	0	0	469	434	834	16	
9	0	0	0	0	469	435	835	16	
10	0	0	0	0	469	435	836	16	
11	0	0	0	0	470	437	837	15	
12	0	0	0	0	470	439	838	15	
13	0	0	0	0	470	440	839	16	
14	0	0	0	0	471	443	839	16	
15	0	0	0	0	471	445	840	16	
0	0	0	0	0	471	448	841	16	
1	0	0	0	0	471	451	843	15	
2	0	0	0	0	471	453	843	16	
3	0	0	0	0	471	455	844	16	
4	0	0	0	0	472	458	844	15	
5	0	0	0	0	472	460	846	16	
6	0	0	0	0	472	463	846	16	
7	0	0	0	0	472	464	847	16	
8	0	0	0	0	472	466	848	16	
9	0	0	0	0	472	467	849	15	
10	0	0	0	0	472	468	849	15	
11	0	0	0	0	472	468	850	16	
12	0	0	0	0	472	469	851	15	
13	0	0	0	0	472	470	852	16	
14	0	0	0	0	472	471	852	16	
15	0	0	0	0	472	471	853	16	
0	0	0	0	0	472	472	854	16	
1	0	0	0	0	472	472	854	16	
2	0	0	0	0	472	473	855	16	
3	0	0	0	0	472	473	855	16	
4	0	0	0	0	472	475	856	15	
5	0	0	0	0	472	476	856	16	
6	0	0	0	0	472	476	857	16	
7	0	0	0	0	472	476	857	16	
8	0	0	0	0	472	477	858	16	
9	0	0	0	0	472	477	858	16	
10	0	0	0	0	472	478	859	16	
11	0	0	0	0	472	477	859	16	
12	0	0	0	0	472	477	860	15	
13	0	0	0	0	471	476	860	16	
14	0	0	0	0	471	476	861	16	
15	0	0	0	0	471	476	861	16	
0	0	0	0	0	471	476	862	16	
1	0	0	0	0	471	475	862	16	
2	0	0	0	0	470	475	862	16	
3	0	0	0	0	470	475	863	15	
4	0	0	0	0	470	476	864	15	
5	0	0	0	0	470	476	864	16	
6	0	0	0	0	470	477	864	16	
7	0	0	0	0	469	477	864	16	
8	0	0	0	0	469	476	864	16	
9	0	0	0	0	469	476	864	16	
10	0	0	0	0	469	477	864	16	
11	0	0	0	0	469	477	865	16	
12	0	0	0	0	468	478	865	15	
13	0	0	0	0	468	478	865	16	
14	0	0	0	0	468	479	866	16	
15	0	0	0	0	467	480	866	16	
0	0	0	0	0	467	481	866	16	
1	0	0	0	0	467	483	866	16	
2	0	0	0	0	467	486	866	16	
3	0	0	0	0	465	487	866	16	
4	0	0	0	0	466	490	866	15	
5	0	0	0	0	465	492	866	16	
6	0	0	0	0	464	493	867	16	
7	0	0	0	0	464	494	867	16	
8	0	0	0	0	464	495	867	16	
9	0	0	0	0	463	495	867	16	
10	0	0	0	0	463	496	866	16	
11	0	0	0	0	463	496	866	16	
12	0	0	0	0	462	497	867	15	
13	0	0	0	0	462	497	867	16	
14	0	0	0	0	461	498	866	16	
15	0	0	0	0	461	498	866	16	
0	0	0	0	0	461	497	867	16	
1	0	0	0	0	460	497	867	16	
2	0	0	0	0	459	498	866	16	
3	0	0	0	0	459	497	866	16	
4	0	0	0	0	459	497	866	15	
5	0	0	0	0	458	497	866	16	
6	0	0	0	0	458	497	866	16	
7	0	0	0	0	458	498	865	16	
8	0	0	0	0	458	498	865	16	
9	0	0	0	0	457	499	865	16	
10	0	0	0	0	457	499	865	15	
11	0	0	0	0	456	499	865	16	
12	0	0	0	0	455	498	864	15	
13	0	0	0	0	455	499	864	16	
14	0	0	0	0	455	499	863	16	
15	0	0	0	0	455	499	863	16	
0	0	0	0	0	454	499	863	16	
1	0	0	0	0	453	499	863	16	
2	0	0	0	0	453	498	862	16	
3	0	0	0	0	452	498	861	16	
4	0	0	0	0	452	498	861	15	
5	0	0	0	0	452	497	860	16	
6	0	0	0	0	451	497	860	16	
7	0	0	0	0	451	497	859	16	
8	0	0	0	0	450	497	858	16	
9	0	0	0	0	449	497	857	16	
10	0	0	0	0	449	498	857	16	
11	0	0	0	0	449	498	856	15	
12	0	0	0	0	447	499	855	15	
13	0	0	0	0	447	499	854	16	
14	0	0	0	0	446	500	853	16	
15	0	0	0	0	446	500	852	16	
0	0	0	0	0	445	500	851	16	
1	0	0	0	0	444	501	850	16	
2	0	0	0	0	444	501	849	16	
3	0	0	0	0	443	501	847	16	
4	0	0	0	0	442	501	846	15	
5	0	0	0	0	441	501	846	15	
6	0	0	0	0	440	502	844	16	
7	0	0	0	0	440	502	843	16	
8	0	0	0	0	439	502	841	16	
9	0	0	0	0	438	502	840	16	
10	0	0	0	0	438	503	838	15	
11	0	0	0	0	437	502	836	15	
12	0	0	0	0	436	502	835	15	
13	0	0	0	0	435	503	833	16	
14	0	0	0	0	435	502	832	16	
15	0	0	0	0	434	502	831	15	
0	0	0	0	0	434	502	829	16	
1	0	0	0	0	433	503	827	15	
2	0	0	0	0	432	503	825	15	
3	0	0	0	0	432	504	823	15	
4	0	0	0	0	431	505	822	15	
5	0	0	0	0	432	506	819	15	
6	0	0	0	0	431	507	818	15	
7	0	0	0	0	431	508	816	15	
8	0	0	0	0	430	509	814	16	
9	0	0	0	0	430	509	812	15	
10	0	0	0	0	429	509	810	15	
11	0	0	0	0	428	510	808	15	
12	0	0	0	0	428	510	807	15	
13	0	0	0	0	427	510	804	15	
14	0	0	0	0	426	510	802	15	
15	0	0	0	0	425	511	800	15	
0	0	0	0	0	425	511	799	16	
1	0	0	0	0	424	511	796	15	
2	0	0	0	0	423	511	794	15	
3	0	0	0	0	423	512	793	15	
4	0	0	0	0	422	512	791	15	
5	0	0	0	0	423	513	789	15	
6	0	0	0	0	421	514	787	15	
7	0	0	0	0	421	514	785	15	
8	0	0	0	0	420	515	783	15	
9	0	0	0	0	419	515	782	15	
10	0	0	0	0	419	516	780	15	
11	0	0	0	0	419	515	778	15	
12	0	0	0	0	417	516	776	15	
13	0	0	0	0	417	516	775	15	
14	0	0	0	0	416	516	773	15	
15	0	0	0	0	416	516	771	15	
0	0	0	0	0	415	515	770	16	
1	0	0	0	0	415	515	768	15	
2	0	0	0	0	415	515	767	15	
3	0	0	0	0	415	515	766	15	
4	0	0	0	0	415	516	764	15	
5	0	0	0	0	414	517	763	15	
6	0	0	0	0	413	516	762	15	
7	0	0	0	0	413	516	760	15	
8	0	0	0	0	413	516	760	16	
9	0	0	0	0	412	516	759	15	
10	0	0	0	0	412	515	757	15	
11	0	0	0	0	412	515	756	15	
12	0	0	0	0	411	515	755	15	
13	0	0	0	0	411	515	754	15	
14	0	0	0	0	411	516	753	15	
15	0	0	0	0	410	516	752	15	
0	0	0	0	0	410	516	751	16	
1	0	0	0	0	411	515	751	15	
2	0	0	0	0	411	515	750	15	
3	0	0	0	0	410	514	749	15	
4	0	0	0	0	410	513	748	15	
5	0	0	0	0	410	512	747	15	
6	0	0	0	0	410	512	747	15	
7	0	0	0	0	410	512	746	15	
8	0	0	0	0	410	511	746	16	
9	0	0	0	0	410	510	745	15	
10	0	0	0	0	411	510	745	15	
11	0	0	0	0	411	510	744	15	
12	0	0	0	0	411	511	743	15	
13	0	0	0	0	412	510	743	15	
14	0	0	0	0	412	510	743	15	
15	0	0	0	0	413	510	743	15	
0	0	0	0	0	413	509	743	15	
1	0	0	0	0	413	509	743	15	
2	0	0	0	0	414	510	743	15	
3	0	0	0	0	414	510	742	15	
4	0	0	0	0	415	510	742	15	
5	0	0	0	0	416	510	742	15	
6	0	0	0	0	417	510	742	15	
7	0	0	0	0	418	509	743	15	
8	0	0	0	0	419	508	743	15	
9	0	0	0	0	420	508	742	15	
10	0	0	0	0	422	508	743	15	
11	0	0	0	0	423	508	743	15	
12	0	0	0	0	424	508	743	15	
13	0	0	0	0	426	508	743	15	
14	0	0	0	0	428	508	743	15	
15	0	0	0	0	429	509	743	15	
0	0	0	0	0	431	508	743	15	
1	0	0	0	0	433	508	744	15	
2	0	0	0	0	435	507	744	15	
3	0	0	0	0	438	505	745	15	
4	0	0	0	0	440	504	745	15	
5	0	0	0	0	442	502	745	15	
6	0	0	0	0	444	501	746	15	
7	0	0	0	0	447	501	746	15	
8	0	0	0	0	449	500	747	15	
9	0	0	0	0	452	502	748	15	
10	0	0	0	0	454	504	748	15	
11	0	0	0	0	457	506	748	15	
12	0	0	0	0	460	507	749	15	
13	0	0	0	0	463	507	749	15	
14	0	0	0	0	465	506	750	15	
15	0	0	0	0	468	507	751	15	
0	0	0	0	0	472	507	752	15	
1	0	0	0	0	475	504	752	15	
2	0	0	0	0	477	500	753	15	
3	0	0	0	0	480	497	753	15	
4	0	0	0	0	483	495	754	15	
5	0	0	0	0	487	494	755	15	
6	0	0	0	0	489	493	755	15	
7	0	0	0	0	492	494	756	15	
8	0	0	0	0	495	495	757	16	
9	0	0	0	0	498	497	758	15	
10	0	0	0	0	502	500	759	15	
11	0	0	0	0	504	501	760	15	
12	0	0	0	0	507	503	761	15	
13	0	0	0	0	510	503	762	15	
14	0	0	0	0	513	503	763	15	
15	0	0	0	0	517	504	764	15	
0	0	0	0	0	519	504	765	16	
1	0	0	0	0	522	503	766	15	
2	0	0	0	0	525	503	768	15	
3	0	0	0	0	528	502	769	15	
4	0	0	0	0	531	501	769	15	
5	0	0	0	0	534	499	771	15	
6	0	0	0	0	537	499	772	15	
7	0	0	0	0	540	497	774	15	
8	0	0	0	0	543	496	775	16	
9	0	0	0	0	545	496	776	15	
10	0	0	0	0	548	496	778	15	
11	0	0	0	0	551	496	779	15	
12	0	0	0	0	553	496	780	15	
13	0	0	0	0	556	496	782	15	
14	0	0	0	0	558	497	783	15	
15	0	0	0	0	560	496	784	15	
0	0	0	0	0	563	496	785	16	
1	0	0	0	0	565	495	787	15	
2	0	0	0	0	568	495	788	15	
3	0	0	0	0	571	494	790	15	
4	0	0	0	0	573	492	792	15	
5	0	0	0	0	575	491	792	15	
6	0	0	0	0	576	491	794	15	
7	0	0	0	0	578	490	795	15	
8	0	0	0	0	579	490	797	16	
9	0	0	0	0	582	491	798	15	
10	0	0	0	0	583	491	799	15	
11	0	0	0	0	585	491	800	15	
12	0	0	0	0	587	492	801	15	
13	0	0	0	0	589	493	803	15	
14	0	0	0	0	590	493	804	15	
15	0	0	0	0	591	494	805	16	
0	0	0	0	0	592	494	806	16	
1	0	0	0	0	593	494	807	15	
2	0	0	0	0	594	495	809	16	
3	0	0	0	0	595	493	810	15	
4	0	0	0	0	595	493	811	15	
5	0	0	0	0	596	494	812	15	
6	0	0	0	0	597	493	813	15	
7	0	0	0	0	598	493	814	15	
8	0	0	0	0	599	492	816	16	
9	0	0	0	0	600	490	816	16	
10	0	0	0	0	600	489	817	15	
11	0	0	0	0	600	487	818	15	
12	0	0	0	0	601	487	820	15	
13	0	0	0	0	601	487	821	15	
14	0	0	0	0	601	488	822	15	
15	0	0	0	0	602	489	823	16	
0	0	0	0	0	602	491	824	16	
1	0	0	0	0	601	492	825	15	
2	0	0	0	0	601	494	827	15	
3	0	0	0	0	601	495	827	16	
4	0	0	0	0	601	496	829	15	
5	0	0	0	0	600	497	830	16	
6	0	0	0	0	600	498	831	15	
7	0	0	0	0	600	499	832	16	
8	0	0	0	0	600	500	833	16	
9	0	0	0	0	599	502	835	15	
10	0	0	0	0	598	503	835	15	
11	0	0	0	0	598	504	837	15	
12	0	0	0	0	597	504	838	15	
13	0	0	0	0	596	505	839	16	
14	0	0	0	0	595	505	840	15	
15	0	0	0	0	594	505	842	15	
0	0	0	0	0	594	504	843	16	
1	0	0	0	0	593	504	844	16	
2	0	0	0	0	592	503	845	15	
3	0	0	0	0	591	502	846	16	
4	0	0	0	0	590	500	848	15	
5	0	0	0	0	588	500	849	16	
6	0	0	0	0	588	499	851	16	
7	0	0	0	0	587	500	852	16	
8	0	0	0	0	585	500	853	16	
9	0	0	0	0	583	501	855	16	
10	0	0	0	0	583	502	856	16	
11	0	0	0	0	582	502	857	16	
12	0	0	0	0	581	501	858	15	
13	0	0	0	0	580	501	859	16	
14	0	0	0	0	579	500	860	15	
15	0	0	0	0	577	500	862	16	
0	0	0	0	0	576	500	863	16	
1	0	0	0	0	575	500	864	16	
2	0	0	0	0	574	501	865	16	
3	0	0	0	0	572	501	867	16	
4	0	0	0	0	572	500	867	15	
5	0	0	0	0	570	499	869	16	
6	0	0	0	0	568	499	870	16	
7	0	0	0	0	568	499	871	16	
8	0	0	0	0	566	499	871	16	
9	0	0	0	0	564	499	873	16	
10	0	0	0	0	563	500	874	16	
11	0	0	0	0	562	499	875	16	
12	0	0	0	0	560	499	876	15	
13	0	0	0	0	559	498	877	16	
14	0	0	0	0	558	498	878	16	
15	0	0	0	0	557	499	879	16	
0	0	0	0	0	555	498	880	16	
1	0	0	0	0	554	498	881	16	
2	0	0	0	0	552	497	882	16	
3	0	0	0	0	551	496	883	16	
4	0	0	0	0	549	495	883	15	
5	0	0	0	0	548	495	884	16	
6	0	0	0	0	546	495	886	16	
7	0	0	0	0	545	494	886	16	
8	0	0	0	0	544	494	887	16	
9	0	0	0	0	543	494	888	16	
10	0	0	0	0	541	495	889	16	
11	0	0	0	0	540	495	890	16	
12	0	0	0	0	538	495	891	15	
13	0	0	0	0	537	496	892	16	
14	0	0	0	0	536	496	892	16	
15	0	0	0	0	534	496	893	16	
0	0	0	0	0	532	496	894	16	
1	0	0	0	0	531	496	895	16	
2	0	0	0	0	530	495	896	16	
3	0	0	0	0	528	495	896	16	
4	0	0	0	0	527	496	897	15	
5	0	0	0	0	525	497	898	16	
6	0	0	0	0	524	497	899	16	
7	0	0	0	0	523	498	900	16	
8	0	0	0	0	521	498	900	16	
9	0	0	0	0	520	498	901	16	
10	0	0	0	0	519	499	902	16	
11	0	0	0	0	518	499	903	16	
12	0	0	0	0	517	500	904	16	
13	0	0	0	0	515	501	904	16	
14	0	0	0	0	515	502	905	16	
15	0	0	0	0	513	502	906	16	
0	0	0	0	0	512	504	907	16	
1	0	0	0	0	512	506	907	16	
2	0	0	0	0	510	507	908	16	
3	0	0	0	0	509	508	908	16	
4	0	0	0	0	508	508	910	15	
5	0	0	0	0	507	508	911	16	
6	0	0	0	0	505	509	911	16	
7	0	0	0	0	504	509	912	16	
8	0	0	0	0	503	508	912	16	
9	0	0	0	0	502	506	913	16	
10	0	0	0	0	501	504	914	16	
11	0	0	0	0	500	501	914	16	
12	0	0	0	0	500	497	916	16	
13	0	0	0	0	498	493	916	16	
14	0	0	0	0	498	490	917	16	
15	0	0	0	0	497	487	917	16	
0	0	0	0	0	496	483	918	16	
1	0	0	0	0	496	478	919	16	
2	0	0	0	0	495	475	919	16	
3	0	0	0	0	494	469	920	16	
4	0	0	0	0	494	465	920	15	
5	0	0	0	0	493	462	921	16	
6	0	0	0	0	492	459	922	16	
7	0	0	0	0	491	458	923	16	
8	0	0	0	0	490	459	924	16	
9	0	0	0	0	489	462	924	16	
10	0	0	0	0	489	467	924	16	
11	0	0	0	0	489	473	925	16	
12	0	0	0	0	488	482	926	16	
13	0	0	0	0	488	494	926	16	
14	0	0	0	0	487	508	927	16	
15	0	0	0	0	487	525	928	16	
0	0	0	0	0	486	543	928	16	
1	0	0	0	0	486	563	929	16	
2	0	0	0	0	485	585	929	16	
3	0	0	0	0	485	608	930	16	
4	0	0	0	0	485	630	931	16	
5	0	0	0	0	484	650	931	16	
6	0	0	0	0	483	670	932	16	
7	0	0	0	0	483	690	933	16	
8	0	0	0	0	483	711	933	16	
9	0	0	0	0	482	728	934	16	
10	0	0	0	0	482	742	934	16	
11	0	0	0	0	482	751	935	16	
12	0	0	0	0	481	755	935	16	
13	0	0	0	0	481	758	936	16	
14	0	0	0	0	481	759	937	16	
15	0	0	0	0	481	757	937	16	
0	0	0	0	0	480	749	937	16	
1	0	0	0	0	480	735	939	16	
2	0	0	0	0	480	718	939	16	
3	0	0	0	0	480	696	939	16	
4	0	0	0	0	479	671	940	16	
5	0	0	0	0	479	645	940	16	
6	0	0	0	0	479	623	941	16	
7	0	0	0	0	478	603	942	16	
8	0	0	0	0	478	583	942	16	
9	0	0	0	0	478	562	942	16	
10	0	0	0	0	478	543	943	16	
11	0	0	0	0	478	528	944	16	
12	0	0	0	0	477	515	944	16	
13	0	0	0	0	477	504	944	16	
14	0	0	0	0	477	492	945	16	
15	0	0	0	0	477	481	946	16	
0	0	0	0	0	476	471	946	16	
1	0	0	0	0	477	463	946	16	
2	0	0	0	0	476	457	947	16	
3	0	0	0	0	476	451	947	16	
4	0	0	0	0	476	447	948	16	
5	0	0	0	0	476	443	948	16	
6	0	0	0	0	476	441	949	16	
7	0	0	0	0	475	440	949	16	
8	0	0	0	0	475	441	949	16	
9	0	0	0	0	475	441	950	16	
10	0	0	0	0	475	442	950	16	
11	0	0	0	0	475	443	950	16	
12	0	0	0	0	475	445	950	16	
13	0	0	0	0	475	446	951	16	
14	0	0	0	0	475	446	952	16	
15	0	0	0	0	474	447	952	16	
0	0	0	0	0	475	448	952	16	
1	0	0	0	0	474	449	952	16	
2	0	0	0	0	474	450	952	16	
3	0	0	0	0	474	451	952	16	
4	0	0	0	0	474	452	953	16	
5	0	0	0	0	474	452	953	16	
6	0	0	0	0	474	454	954	16	
7	0	0	0	0	474	455	954	16	
8	0	0	0	0	474	456	954	16	
9	0	0	0	0	474	457	954	16	
10	0	0	0	0	475	459	955	16	
11	0	0	0	0	475	460	955	16	
12	0	0	0	0	474	462	955	16	
13	0	0	0	0	474	463	955	16	
14	0	0	0	0	474	464	956	16	
15	0	0	0	0	474	465	955	16	
0	0	0	0	0	475	467	956	16	
1	0	0	0	0	474	467	956	16	
2	0	0	0	0	474	468	956	16	
3	0	0	0	0	475	469	956	16	
4	0	0	0	0	475	470	957	16	
5	0	0	0	0	474	470	956	16	
6	0	0	0	0	474	471	957	16	
7	0	0	0	0	475	471	957	16	
8	0	0	0	0	474	471	957	16	
9	0	0	0	0	474	471	957	16	
10	0	0	0	0	474	471	958	16	
11	0	0	0	0	474	470	958	16	
12	0	0	0	0	474	469	958	16	
13	0	0	0	0	474	469	958	16	
14	0	0	0	0	474	469	958	16	
15	0	0	0	0	473	469	959	16	
0	0	0	0	0	473	470	959	16	
1	0	0	0	0	473	470	959	16	
2	0	0	0	0	473	470	959	16	
3	0	0	0	0	474	471	960	16	
4	0	0	0	0	473	472	960	16	
5	0	0	0	0	474	472	960	16	
6	0	0	0	0	473	472	960	16	
7	0	0	0	0	473	473	960	16	
8	0	0	0	0	473	473	960	16	
9	0	0	0	0	473	475	960	16	
10	0	0	0	0	474	475	961	16	
11	0	0	0	0	474	476	960	16	
12	0	0	0	0	473	476	961	16	
13	0	0	0	0	473	477	960	16	
14	0	0	0	0	473	478	961	16	
15	0	0	0	0	473	479	961	16	
0	0	0	0	0	473	479	961	16	
1	0	0	0	0	474	480	961	16	
2	0	0	0	0	474	480	961	16	
3	0	0	0	0	475	481	961	16	
4	0	0	0	0	474	481	961	16	
5	0	0	0	0	474	481	961	16	
6	0	0	0	0	475	481	961	16	
7	0	0	0	0	475	481	961	16	
8	0	0	0	0	475	480	961	16	
9	0	0	0	0	474	480	961	16	
10	0	0	0	0	474	479	961	16	
11	0	0	0	0	475	479	961	16	
12	0	0	0	0	475	478	961	16	
13	0	0	0	0	474	478	961	16	
14	0	0	0	0	475	478	960	16	
15	0	0	0	0	475	478	960	16	
0	0	0	0	0	475	478	960	16	
1	0	0	0	0	474	479	960	16	
2	0	0	0	0	474	480	960	16	
3	0	0	0	0	475	481	960	16	
4	0	0	0	0	475	481	960	16	
5	0	0	0	0	474	483	959	16	
6	0	0	0	0	475	483	959	16	
7	0	0	0	0	475	483	959	16	
8	0	0	0	0	474	483	959	16	
9	0	0	0	0	475	483	959	16	
10	0	0	0	0	475	484	958	16	
11	0	0	0	0	476	483	958	16	
12	0	0	0	0	475	483	958	16	
13	0	0	0	0	475	482	957	16	
14	0	0	0	0	475	482	957	16	
15	0	0	0	0	475	482	957	16	
0	0	0	0	0	475	483	956	16	
1	0	0	0	0	476	483	956	16	
2	0	0	0	0	476	482	955	16	
3	0	0	0	0	476	483	955	16	
4	0	0	0	0	476	484	955	16	
5	0	0	0	0	476	485	954	16	
6	0	0	0	0	476	486	954	16	
7	0	0	0	0	476	486	953	16	
8	0	0	0	0	476	486	953	16	
9	0	0	0	0	476	485	952	16	
10	0	0	0	0	476	484	952	16	
11	0	0	0	0	477	483	952	16	
12	0	0	0	0	476	483	951	16	
13	0	0	0	0	476	483	950	16	
14	0	0	0	0	476	484	950	16	
15	0	0	0	0	477	485	949	16	
0	0	0	0	0	476	486	948	16	
1	0	0	0	0	477	487	948	16	
2	0	0	0	0	477	487	948	16	
3	0	0	0	0	477	488	947	16	
4	0	0	0	0	477	489	947	16	
5	0	0	0	0	477	490	946	16	
6	0	0	0	0	478	491	946	16	
7	0	0	0	0	478	491	945	16	
8	0	0	0	0	478	490	944	16	
9	0	0	0	0	478	490	944	16	
10	0	0	0	0	478	491	944	16	
11	0	0	0	0	478	492	943	16	
12	0	0	0	0	478	492	942	16	
13	0	0	0	0	479	493	942	16	
14	0	0	0	0	478	494	941	16	
15	0	0	0	0	479	494	941	16	
0	0	0	0	0	479	496	940	16	
1	0	0	0	0	479	496	940	16	
2	0	0	0	0	480	497	939	16	
3	0	0	0	0	480	497	939	16	
4	0	0	0	0	480	498	939	16	
5	0	0	0	0	480	498	938	16	
6	0	0	0	0	480	498	938	16	
7	0	0	0	0	480	497	937	16	
8	0	0	0	0	480	498	937	16	
9	0	0	0	0	481	498	937	16	
10	0	0	0	0	480	498	936	16	
11	0	0	0	0	480	497	936	16	
12	0	0	0	0	480	497	936	16	
13	0	0	0	0	480	497	935	16	
14	0	0	0	0	480	497	936	16	
15	0	0	0	0	480	498	935	16	
0	0	0	0	0	480	498	935	16	
1	0	0	0	0	481	498	934	16	
2	0	0	0	0	480	499	935	16	
3	0	0	0	0	480	499	935	16	
4	0	0	0	0	480	500	935	16	
5	0	0	0	0	480	500	935	16	
6	0	0	0	0	480	500	935	16	
7	0	0	0	0	480	500	934	16	
8	0	0	0	0	480	499	934	16	
9	0	0	0	0	480	500	935	16	
10	0	0	0	0	480	500	934	16	
11	0	0	0	0	480	501	933	16	
12	0	0	0	0	480	501	934	15	
13	0	0	0	0	480	503	934	16	
14	0	0	0	0	480	504	934	16	
15	0	0	0	0	480	505	934	16	
0	0	0	0	0	480	505	934	16	
1	0	0	0	0	480	506	934	16	
2	0	0	0	0	480	507	934	16	
3	0	0	0	0	480	507	934	16	
4	0	0	0	0	480	506	934	15	
5	0	0	0	0	480	504	933	16	
6	0	0	0	0	480	502	933	16	
7	0	0	0	0	480	500	933	16	
8	0	0	0	0	480	499	934	16	
9	0	0	0	0	480	498	934	16	
10	0	0	0	0	480	498	933	16	
11	0	0	0	0	480	497	933	16	
12	0	0	0	0	480	497	933	16	
13	0	0	0	0	480	496	933	16	
14	0	0	0	0	480	496	933	16	
15	0	0	0	0	480	497	933	16	
0	0	0	0	0	480	497	932	16	
1	0	0	0	0	480	498	933	16	
2	0	0	0	0	479	500	932	16	
3	0	0	0	0	480	500	932	16	
4	0	0	0	0	480	502	932	15	
5	0	0	0	0	479	503	931	16	
6	0	0	0	0	480	504	932	16	
7	0	0	0	0	479	505	932	16	
8	0	0	0	0	480	505	932	16	
9	0	0	0	0	480	506	932	16	
10	0	0	0	0	480	506	931	16	
11	0	0	0	0	481	506	931	16	
12	0	0	0	0	481	506	931	16	
13	0	0	0	0	480	505	931	16	
14	0	0	0	0	481	506	931	16	
15	0	0	0	0	481	506	931	16	
0	0	0	0	0	482	506	931	16	
1	0	0	0	0	482	506	930	16	
2	0	0	0	0	483	506	930	16	
3	0	0	0	0	483	507	930	16	
4	0	0	0	0	484	507	930	16	
5	0	0	0	0	485	506	930	16	
6	0	0	0	0	486	505	930	16	
7	0	0	0	0	487	504	930	16	
8	0	0	0	0	488	503	929	16	
9	0	0	0	0	489	502	929	16	
10	0	0	0	0	490	502	929	16	
11	0	0	0	0	491	500	929	16	
12	0	0	0	0	492	500	929	16	
13	0	0	0	0	494	499	929	16	
14	0	0	0	0	495	499	928	16	
15	0	0	0	0	496	499	929	16	
0	0	0	0	0	498	499	928	16	
1	0	0	0	0	499	498	928	16	
2	0	0	0	0	500	497	928	16	
3	0	0	0	0	502	497	927	16	
4	0	0	0	0	504	497	927	16	
5	0	0	0	0	506	498	928	16	
6	0	0	0	0	508	498	927	16	
7	0	0	0	0	509	499	927	16	
8	0	0	0	0	511	499	927	16	
9	0	0	0	0	512	500	927	16	
10	0	0	0	0	514	500	927	16	
11	0	0	0	0	516	500	926	16	
12	0	0	0	0	518	500	926	15	
13	0	0	0	0	519	500	926	16	
14	0	0	0	0	522	499	926	16	
15	0	0	0	0	523	498	926	16	
0	0	0	0	0	526	496	925	16	
1	0	0	0	0	527	495	925	16	
2	0	0	0	0	529	492	924	16	
3	0	0	0	0	532	491	925	16	
4	0	0	0	0	534	490	924	15	
5	0	0	0	0	536	489	924	16	
6	0	0	0	0	538	490	924	16	
7	0	0	0	0	540	491	924	16	
8	0	0	0	0	542	492	923	16	
9	0	0	0	0	544	492	923	16	
10	0	0	0	0	546	493	923	16	
11	0	0	0	0	547	493	922	16	
12	0	0	0	0	550	492	922	16	
13	0	0	0	0	552	493	922	16	
14	0	0	0	0	553	493	922	16	
15	0	0	0	0	555	492	921	16	
0	0	0	0	0	558	493	922	16	
1	0	0	0	0	560	493	921	16	
2	0	0	0	0	561	493	921	16	
3	0	0	0	0	563	492	921	16	
4	0	0	0	0	564	492	920	16	
5	0	0	0	0	566	492	920	16	
6	0	0	0	0	567	491	920	16	
7	0	0	0	0	568	491	920	16	
8	0	0	0	0	571	490	919	16	
9	0	0	0	0	571	489	919	16	
10	0	0	0	0	572	489	919	16	
11	0	0	0	0	574	488	919	16	
12	0	0	0	0	575	488	919	16	
13	0	0	0	0	576	488	918	16	
14	0	0	0	0	577	489	917	16	
15	0	0	0	0	579	489	917	16	
0	0	0	0	0	579	490	916	16	
1	0	0	0	0	581	492	917	16	
2	0	0	0	0	581	492	916	16	
3	0	0	0	0	583	494	915	16	
4	0	0	0	0	583	495	915	15	
5	0	0	0	0	584	495	915	16	
6	0	0	0	0	585	495	914	16	
7	0	0	0	0	586	495	914	16	
8	0	0	0	0	587	495	913	16	
9	0	0	0	0	587	495	913	16	
10	0	0	0	0	588	494	912	16	
11	0	0	0	0	589	493	912	16	
12	0	0	0	0	589	491	911	15	
13	0	0	0	0	590	490	911	16	
14	0	0	0	0	590	490	910	16	
15	0	0	0	0	590	489	910	16	
0	0	0	0	0	591	490	909	16	
1	0	0	0	0	590	489	909	16	
2	0	0	0	0	591	490	908	16	
3	0	0	0	0	591	489	908	16	
4	0	0	0	0	591	489	907	15	
5	0	0	0	0	591	489	907	16	
6	0	0	0	0	591	489	906	16	
7	0	0	0	0	591	488	906	16	
8	0	0	0	0	590	488	905	16	
9	0	0	0	0	590	488	904	16	
10	0	0	0	0	590	489	904	16	
11	0	0	0	0	590	489	903	16	
12	0	0	0	0	590	491	903	16	
13	0	0	0	0	589	493	902	16	
14	0	0	0	0	589	495	901	16	
15	0	0	0	0	588	494	900	16	
0	0	0	0	0	588	494	900	16	
1	0	0	0	0	587	493	899	16	
2	0	0	0	0	587	493	899	16	
3	0	0	0	0	586	492	898	16	
4	0	0	0	0	585	492	898	15	
5	0	0	0	0	584	494	897	16	
6	0	0	0	0	583	495	896	16	
7	0	0	0	0	582	495	896	16	
8	0	0	0	0	581	496	895	16	
9	0	0	0	0	581	497	895	16	
10	0	0	0	0	580	497	894	16	
11	0	0	0	0	580	496	894	16	
12	0	0	0	0	578	495	893	15	
13	0	0	0	0	577	495	893	16	
14	0	0	0	0	575	494	892	16	
15	0	0	0	0	575	492	891	16	
0	0	0	0	0	574	491	891	16	
1	0	0	0	0	572	490	890	16	
2	0	0	0	0	572	490	890	16	
3	0	0	0	0	571	491	889	16	
4	0	0	0	0	569	491	888	15	
5	0	0	0	0	568	492	888	16	
6	0	0	0	0	566	492	887	16	
7	0	0	0	0	565	493	887	16	
8	0	0	0	0	564	494	886	16	
9	0	0	0	0	563	495	886	16	
10	0	0	0	0	561	495	885	16	
11	0	0	0	0	560	495	885	16	
12	0	0	0	0	559	494	884	15	
13	0	0	0	0	557	495	884	16	
14	0	0	0	0	556	494	883	16	
15	0	0	0	0	555	494	883	16	
0	0	0	0	0	554	493	882	16	
1	0	0	0	0	552	492	882	16	
2	0	0	0	0	551	491	881	16	
3	0	0	0	0	550	490	880	16	
4	0	0	0	0	548	490	880	15	
5	0	0	0	0	547	490	880	16	
6	0	0	0	0	545	489	879	16	
7	0	0	0	0	544	488	879	16	
8	0	0	0	0	543	486	878	16	
9	0	0	0	0	542	486	878	16	
10	0	0	0	0	540	485	877	16	
11	0	0	0	0	538	484	877	16	
12	0	0	0	0	538	484	876	15	
13	0	0	0	0	536	484	876	16	
14	0	0	0	0	535	483	875	16	
15	0	0	0	0	533	483	875	16	
0	0	0	0	0	531	483	875	16	
1	0	0	0	0	530	482	874	16	
2	0	0	0	0	527	483	874	16	
3	0	0	0	0	527	482	873	16	
4	0	0	0	0	526	482	873	15	
5	0	0	0	0	524	483	872	16	
6	0	0	0	0	523	482	872	16	
7	0	0	0	0	521	482	871	16	
8	0	0	0	0	519	481	870	16	
9	0	0	0	0	519	480	870	16	
10	0	0	0	0	518	480	870	16	
11	0	0	0	0	516	479	869	16	
12	0	0	0	0	515	479	868	15	
13	0	0	0	0	513	480	867	16	
14	0	0	0	0	512	480	867	15	
15	0	0	0	0	512	481	866	16	
0	0	0	0	0	511	482	866	16	
1	0	0	0	0	510	482	865	16	
2	0	0	0	0	509	483	865	16	
3	0	0	0	0	508	484	864	15	
4	0	0	0	0	507	484	864	15	
5	0	0	0	0	505	483	863	16	
6	0	0	0	0	505	484	863	16	
7	0	0	0	0	504	485	862	16	
8	0	0	0	0	504	485	861	16	
9	0	0	0	0	503	486	860	16	
10	0	0	0	0	502	486	860	16	
11	0	0	0	0	502	485	859	15	
12	0	0	0	0	500	486	859	15	
13	0	0	0	0	500	484	858	16	
14	0	0	0	0	499	483	857	16	
15	0	0	0	0	498	482	856	16	
0	0	0	0	0	497	481	856	16	
1	0	0	0	0	496	480	855	16	
2	0	0	0	0	496	480	854	15	
3	0	0	0	0	495	481	853	16	
4	0	0	0	0	494	482	853	15	
5	0	0	0	0	493	482	851	16	
6	0	0	0	0	493	483	851	16	
7	0	0	0	0	492	481	849	16	
8	0	0	0	0	492	480	849	16	
9	0	0	0	0	491	478	849	16	
10	0	0	0	0	491	477	848	16	
11	0	0	0	0	490	476	847	16	
12	0	0	0	0	489	473	846	15	
13	0	0	0	0	488	471	845	16	
14	0	0	0	0	488	467	844	16	
15	0	0	0	0	487	463	843	16	
0	0	0	0	0	487	457	842	16	
1	0	0	0	0	487	451	842	15	
2	0	0	0	0	487	446	841	15	
3	0	0	0	0	487	441	840	16	
4	0	0	0	0	486	437	839	15	
5	0	0	0	0	485	432	838	16	
6	0	0	0	0	485	430	837	16	
7	0	0	0	0	484	431	836	15	
8	0	0	0	0	484	435	836	16	
9	0	0	0	0	483	441	835	16	
10	0	0	0	0	483	449	834	16	
11	0	0	0	0	483	459	833	15	
12	0	0	0	0	483	471	832	15	
13	0	0	0	0	483	487	831	16	
14	0	0	0	0	483	504	830	16	
15	0	0	0	0	483	524	830	16	
0	0	0	0	0	482	545	828	16	
1	0	0	0	0	482	567	828	15	
2	0	0	0	0	481	590	827	15	
3	0	0	0	0	481	611	826	15	
4	0	0	0	0	481	633	825	15	
5	0	0	0	0	480	653	825	15	
6	0	0	0	0	480	673	824	16	
7	0	0	0	0	480	694	823	16	
8	0	0	0	0	480	715	822	16	
9	0	0	0	0	480	733	821	15	
10	0	0	0	0	479	745	820	15	
11	0	0	0	0	479	752	819	15	
12	0	0	0	0	479	753	819	15	
13	0	0	0	0	478	751	818	15	
14	0	0	0	0	478	748	817	15	
15	0	0	0	0	478	740	816	16	
0	0	0	0	0	478	728	816	16	
1	0	0	0	0	478	712	815	15	
2	0	0	0	0	478	693	814	15	
3	0	0	0	0	478	671	813	15	
4	0	0	0	0	477	644	812	15	
5	0	0	0	0	477	617	812	15	
6	0	0	0	0	477	595	811	15	
7	0	0	0	0	477	573	810	15	
8	0	0	0	0	477	551	809	16	
9	0	0	0	0	476	532	809	15	
10	0	0	0	0	476	516	808	15	
11	0	0	0	0	477	502	807	15	
12	0	0	0	0	476	491	807	15	
13	0	0	0	0	476	480	806	15	
14	0	0	0	0	476	470	804	15	
15	0	0	0	0	476	459	805	16	
0	0	0	0	0	476	450	804	16	
1	0	0	0	0	476	442	803	15	
2	0	0	0	0	476	437	803	15	
3	0	0	0	0	476	432	802	15	
4	0	0	0	0	475	428	801	15	
5	0	0	0	0	476	424	801	15	
6	0	0	0	0	476	423	800	15	
7	0	0	0	0	476	423	800	15	
8	0	0	0	0	476	423	799	16	
9	0	0	0	0	475	424	799	15	
10	0	0	0	0	475	426	798	15	
11	0	0	0	0	476	428	797	15	
12	0	0	0	0	475	429	797	15	
13	0	0	0	0	475	432	796	16	
14	0	0	0	0	475	434	795	15	
15	0	0	0	0	475	436	795	16	
0	0	0	0	0	475	438	794	16	
1	0	0	0	0	475	440	793	15	
2	0	0	0	0	475	442	793	15	
3	0	0	0	0	476	443	792	15	
4	0	0	0	0	475	446	792	15	
5	0	0	0	0	475	447	791	15	
6	0	0	0	0	475	448	790	15	
7	0	0	0	0	475	450	789	15	
8	0	0	0	0	475	450	789	16	
9	0	0	0	0	475	451	788	15	
10	0	0	0	0	475	452	787	15	
11	0	0	0	0	475	452	787	15	
12	0	0	0	0	475	452	785	15	
13	0	0	0	0	476	452	785	15	
14	0	0	0	0	475	454	784	15	
15	0	0	0	0	475	454	784	15	
0	0	0	0	0	475	454	783	16	
1	0	0	0	0	475	454	781	15	
2	0	0	0	0	475	455	781	15	
3	0	0	0	0	476	457	781	15	
4	0	0	0	0	476	458	780	15	
5	0	0	0	0	476	459	779	15	
6	0	0	0	0	476	460	779	15	
7	0	0	0	0	476	459	778	15	
8	0	0	0	0	476	461	777	16	
9	0	0	0	0	476	462	776	15	
10	0	0	0	0	476	463	775	15	
11	0	0	0	0	477	462	775	15	
12	0	0	0	0	476	462	775	15	
13	0	0	0	0	476	462	774	15	
14	0	0	0	0	477	463	774	15	
15	0	0	0	0	476	465	772	15	
0	0	0	0	0	476	466	772	15	
1	0	0	0	0	477	468	771	15	
2	0	0	0	0	476	470	771	15	
3	0	0	0	0	477	470	770	15	
4	0	0	0	0	477	472	770	15	
5	0	0	0	0	477	472	769	15	
6	0	0	0	0	477	473	768	15	
7	0	0	0	0	477	473	768	15	
8	0	0	0	0	477	473	768	16	
9	0	0	0	0	477	472	767	15	
10	0	0	0	0	478	472	766	15	
11	0	0	0	0	478	472	766	15	
12	0	0	0	0	478	475	766	15	
13	0	0	0	0	478	475	765	15	
14	0	0	0	0	479	477	765	15	
15	0	0	0	0	479	477	764	15	
0	0	0	0	0	479	479	764	16	
1	0	0	0	0	479	479	763	15	
2	0	0	0	0	479	480	763	15	
3	0	0	0	0	479	479	763	15	
4	0	0	0	0	479	479	762	15	
5	0	0	0	0	479	478	762	15	
6	0	0	0	0	479	476	761	15	
7	0	0	0	0	479	476	761	15	
8	0	0	0	0	479	475	761	16	
9	0	0	0	0	480	475	761	15	
10	0	0	0	0	480	475	760	15	
11	0	0	0	0	480	476	760	15	
12	0	0	0	0	480	476	760	15	
13	0	0	0	0	480	476	759	15	
14	0	0	0	0	480	476	759	15	
15	0	0	0	0	480	477	758	15	
0	0	0	0	0	480	478	758	16	
1	0	0	0	0	481	479	758	15	
2	0	0	0	0	481	480	758	15	
3	0	0	0	0	481	480	757	15	
4	0	0	0	0	481	480	757	15	
5	0	0	0	0	481	481	756	15	
6	0	0	0	0	481	481	756	15	
7	0	0	0	0	481	483	756	15	
8	0	0	0	0	482	484	756	16	
9	0	0	0	0	482	485	755	15	
10	0	0	0	0	483	486	755	15	
11	0	0	0	0	483	487	754	15	
12	0	0	0	0	483	487	755	15	
13	0	0	0	0	483	488	754	15	
14	0	0	0	0	483	487	754	15	
15	0	0	0	0	483	488	754	15	
0	0	0	0	0	483	489	753	16	
1	0	0	0	0	483	490	753	15	
2	0	0	0	0	483	490	753	15	
3	0	0	0	0	484	489	752	15	
4	0	0	0	0	483	489	752	15	
5	0	0	0	0	484	487	752	15	
6	0	0	0	0	484	487	752	15	
7	0	0	0	0	484	487	752	15	
8	0	0	0	0	485	487	751	15	
9	0	0	0	0	485	488	751	15	
10	0	0	0	0	484	488	751	15	
11	0	0	0	0	485	489	750	15	
12	0	0	0	0	485	491	750	15	
13	0	0	0	0	484	492	750	15	
14	0	0	0	0	485	493	750	15	
15	0	0	0	0	485	495	749	15	
0	0	0	0	0	485	495	749	16	
1	0	0	0	0	485	497	748	15	
2	0	0	0	0	485	497	748	15	
3	0	0	0	0	485	497	748	15	
4	0	0	0	0	484	496	748	15	
5	0	0	0	0	485	495	748	15	
6	0	0	0	0	484	495	747	15	
7	0	0	0	0	484	495	747	15	
8	0	0	0	0	484	496	747	15	
9	0	0	0	0	484	497	747	15	
10	0	0	0	0	485	498	746	15	
11	0	0	0	0	484	498	746	15	
12	0	0	0	0	485	496	746	15	
13	0	0	0	0	484	497	745	15	
14	0	0	0	0	484	498	745	15	
15	0	0	0	0	485	500	745	15	
0	0	0	0	0	484	501	745	16	
1	0	0	0	0	484	503	744	15	
2	0	0	0	0	484	503	744	15	
3	0	0	0	0	484	504	744	15	
4	0	0	0	0	484	504	744	15	
5	0	0	0	0	484	504	743	15	
6	0	0	0	0	483	503	743	15	
7	0	0	0	0	484	504	743	15	
8	0	0	0	0	483	505	743	15	
9	0	0	0	0	484	507	743	15	
10	0	0	0	0	483	508	743	15	
11	0	0	0	0	483	508	743	15	
12	0	0	0	0	483	508	743	15	
13	0	0	0	0	483	509	742	15	
14	0	0	0	0	483	510	742	15	
15	0	0	0	0	482	511	742	15	
0	0	0	0	0	482	512	742	15	
1	0	0	0	0	482	512	742	15	
2	0	0	0	0	482	512	742	15	
3	0	0	0	0	482	510	742	15	
4	0	0	0	0	482	509	741	15	
5	0	0	0	0	482	508	742	15	
6	0	0	0	0	483	507	742	15	
7	0	0	0	0	482	506	741	15	
8	0	0	0	0	482	506	741	16	
9	0	0	0	0	483	508	741	15	
10	0	0	0	0	482	508	741	15	
11	0	0	0	0	483	507	740	15	
12	0	0	0	0	483	507	742	15	
13	0	0	0	0	482	506	741	15	
14	0	0	0	0	482	505	741	15	
15	0	0	0	0	483	504	741	15	
0	0	0	0	0	483	503	740	15	
1	0	0	0	0	483	502	740	15	
2	0	0	0	0	482	502	740	15	
3	0	0	0	0	483	503	740	15	
4	0	0	0	0	482	503	740	15	
5	0	0	0	0	483	503	740	15	
6	0	0	0	0	483	503	741	15	
7	0	0	0	0	483	503	741	15	
8	0	0	0	0	483	502	740	15	
9	0	0	0	0	483	502	740	15	
10	0	0	0	0	483	503	740	15	
11	0	0	0	0	483	504	740	15	
12	0	0	0	0	483	504	740	15	
13	0	0	0	0	482	504	740	15	
14	0	0	0	0	482	504	740	15	
15	0	0	0	0	483	504	740	15	
0	0	0	0	0	483	504	740	15	
1	0	0	0	0	483	503	740	15	
2	0	0	0	0	482	503	740	15	
3	0	0	0	0	483	500	740	15	
4	0	0	0	0	483	500	740	15	
5	0	0	0	0	483	500	741	15	
6	0	0	0	0	483	500	741	15	
7	0	0	0	0	483	502	741	15	
8	0	0	0	0	483	503	740	16	
9	0	0	0	0	484	505	741	15	
10	0	0	0	0	484	506	741	15	
11	0	0	0	0	484	508	741	15	
12	0	0	0	0	484	509	742	15	
13	0	0	0	0	484	509	741	15	
14	0	0	0	0	485	508	741	15	
15	0	0	0	0	485	507	741	15	
0	0	0	0	0	486	506	741	15	
1	0	0	0	0	487	506	741	15	
2	0	0	0	0	487	507	741	15	
3	0	0	0	0	488	506	742	15	
4	0	0	0	0	489	504	742	15	
5	0	0	0	0	489	503	742	15	
6	0	0	0	0	490	502	742	15	
7	0	0	0	0	491	501	742	15	
8	0	0	0	0	493	503	742	15	
9	0	0	0	0	494	504	742	15	
10	0	0	0	0	495	505	742	15	
11	0	0	0	0	496	507	742	15	
12	0	0	0	0	497	506	742	15	
13	0	0	0	0	498	506	742	15	
14	0	0	0	0	500	506	742	15	
15	0	0	0	0	501	506	743	15	
0	0	0	0	0	503	506	742	15	
1	0	0	0	0	504	505	742	15	
2	0	0	0	0	506	505	742	15	
3	0	0	0	0	507	505	743	15	
4	0	0	0	0	509	505	743	15	
5	0	0	0	0	510	505	743	15	
6	0	0	0	0	512	504	742	15	
7	0	0	0	0	514	504	742	15	
8	0	0	0	0	516	505	743	15	
9	0	0	0	0	518	504	742	15	
10	0	0	0	0	519	504	743	15	
11	0	0	0	0	521	503	742	15	
12	0	0	0	0	524	504	743	15	
13	0	0	0	0	525	504	743	15	
14	0	0	0	0	527	505	742	15	
15	0	0	0	0	529	505	743	15	
0	0	0	0	0	531	505	743	16	
1	0	0	0	0	534	506	743	15	
2	0	0	0	0	536	505	742	15	
3	0	0	0	0	538	503	742	15	
4	0	0	0	0	540	501	743	15	
5	0	0	0	0	542	500	743	15	
6	0	0	0	0	544	500	743	15	
7	0	0	0	0	547	501	743	15	
8	0	0	0	0	549	503	743	16	
9	0	0	0	0	551	504	743	15	
10	0	0	0	0	553	505	743	15	
11	0	0	0	0	556	507	743	15	
12	0	0	0	0	557	509	742	15	
13	0	0	0	0	560	511	743	15	
14	0	0	0	0	562	512	743	15	
15	0	0	0	0	564	511	743	15	
0	0	0	0	0	566	510	743	16	
1	0	0	0	0	568	507	743	15	
2	0	0	0	0	571	507	743	15	
3	0	0	0	0	572	505	742	15	
4	0	0	0	0	575	504	743	15	
5	0	0	0	0	577	503	743	15	
6	0	0	0	0	579	502	743	15	
7	0	0	0	0	580	501	743	15	
8	0	0	0	0	583	502	743	15	
9	0	0	0	0	584	504	743	15	
10	0	0	0	0	586	504	743	15	
11	0	0	0	0	588	505	743	15	
12	0	0	0	0	590	505	743	15	
13	0	0	0	0	591	505	743	15	
14	0	0	0	0	593	505	743	15	
15	0	0	0	0	595	505	743	15	
0	0	0	0	0	597	505	743	16	
1	0	0	0	0	598	504	743	15	
2	0	0	0	0	600	504	743	15	
3	0	0	0	0	601	504	743	15	
4	0	0	0	0	602	504	744	15	
5	0	0	0	0	604	503	743	15	
6	0	0	0	0	605	503	743	15	
7	0	0	0	0	607	502	743	15	
8	0	0	0	0	607	504	743	15	
9	0	0	0	0	608	505	743	15	
10	0	0	0	0	609	507	743	15	
11	0	0	0	0	610	508	744	15	
12	0	0	0	0	611	508	743	15	
13	0	0	0	0	611	505	744	15	
14	0	0	0	0	612	503	743	15	
15	0	0	0	0	613	502	743	15	
0	0	0	0	0	614	501	744	16	
1	0	0	0	0	614	502	743	15	
2	0	0	0	0	614	504	744	15	
3	0	0	0	0	615	504	744	15	
4	0	0	0	0	615	503	744	15	
5	0	0	0	0	615	504	744	15	
6	0	0	0	0	615	505	744	15	
7	0	0	0	0	615	505	744	15	
8	0	0	0	0	615	506	744	16	
9	0	0	0	0	615	505	744	15	
10	0	0	0	0	615	504	744	15	
11	0	0	0	0	615	502	744	15	
12	0	0	0	0	614	500	744	15	
13	0	0	0	0	614	500	745	15	
14	0	0	0	0	614	501	745	15	
15	0	0	0	0	612	504	744	15	
0	0	0	0	0	613	505	744	16	
1	0	0	0	0	612	506	745	15	
2	0	0	0	0	612	508	745	15	
3	0	0	0	0	612	508	745	15	
4	0	0	0	0	611	508	745	15	
5	0	0	0	0	610	507	745	15	
6	0	0	0	0	609	505	745	15	
7	0	0	0	0	609	505	745	15	
8	0	0	0	0	608	504	745	15	
9	0	0	0	0	607	505	745	15	
10	0	0	0	0	606	507	745	15	
11	0	0	0	0	606	508	745	15	
12	0	0	0	0	605	510	745	15	
13	0	0	0	0	604	510	745	15	
14	0	0	0	0	604	511	745	15	
15	0	0	0	0	602	513	745	15	
0	0	0	0	0	601	513	745	15	
1	0	0	0	0	600	512	745	15	
2	0	0	0	0	600	509	745	15	
3	0	0	0	0	599	507	745	15	
4	0	0	0	0	597	504	745	15	
5	0	0	0	0	597	503	745	15	
6	0	0	0	0	596	503	745	15	
7	0	0	0	0	595	505	745	15	
8	0	0	0	0	594	507	745	16	
9	0	0	0	0	593	508	745	15	
10	0	0	0	0	591	509	745	15	
11	0	0	0	0	591	510	745	15	
12	0	0	0	0	590	510	745	15	
13	0	0	0	0	588	508	744	15	
14	0	0	0	0	588	508	744	15	
15	0	0	0	0	586	508	744	15	
0	0	0	0	0	585	508	744	16	
1	0	0	0	0	583	509	744	15	
2	0	0	0	0	583	510	744	15	
3	0	0	0	0	581	511	744	15	
4	0	0	0	0	580	512	744	15	
5	0	0	0	0	579	511	744	15	
6	0	0	0	0	578	510	744	15	
7	0	0	0	0	577	509	744	15	
8	0	0	0	0	575	508	744	15	
9	0	0	0	0	574	505	743	15	
10	0	0	0	0	574	504	743	15	
11	0	0	0	0	573	503	743	15	
12	0	0	0	0	572	504	743	15	
13	0	0	0	0	571	505	743	15	
14	0	0	0	0	569	504	742	15	
15	0	0	0	0	568	505	743	15	
0	0	0	0	0	567	506	742	15	
1	0	0	0	0	565	506	742	15	
2	0	0	0	0	564	505	742	15	
3	0	0	0	0	563	504	742	15	
4	0	0	0	0	561	502	742	15	
5	0	0	0	0	560	501	741	15	
6	0	0	0	0	559	500	741	15	
7	0	0	0	0	558	499	740	15	
8	0	0	0	0	556	500	740	15	
9	0	0	0	0	555	501	740	15	
10	0	0	0	0	555	501	740	15	
11	0	0	0	0	553	500	739	15	
12	0	0	0	0	552	499	739	15	
13	0	0	0	0	551	500	739	15	
14	0	0	0	0	550	501	739	15	
15	0	0	0	0	548	501	739	15	
0	0	0	0	0	547	502	738	15	
1	0	0	0	0	546	503	738	15	
2	0	0	0	0	545	504	738	15	
3	0	0	0	0	544	504	738	15	
4	0	0	0	0	542	504	737	15	
5	0	0	0	0	541	503	737	15	
6	0	0	0	0	539	503	736	15	
7	0	0	0	0	539	501	736	15	
8	0	0	0	0	537	501	736	15	
9	0	0	0	0	536	501	736	15	
10	0	0	0	0	534	500	735	15	
11	0	0	0	0	533	500	735	15	
12	0	0	0	0	532	499	735	15	
13	0	0	0	0	531	499	734	15	
14	0	0	0	0	529	499	734	15	
15	0	0	0	0	528	498	734	15	
0	0	0	0	0	527	499	733	15	
1	0	0	0	0	526	500	733	15	
2	0	0	0	0	525	501	733	15	
3	0	0	0	0	523	500	732	15	
4	0	0	0	0	521	499	732	15	
5	0	0	0	0	519	499	732	15	
6	0	0	0	0	519	499	731	15	
7	0	0	0	0	518	501	731	15	
8	0	0	0	0	517	503	730	15	
9	0	0	0	0	515	504	730	15	
10	0	0	0	0	514	504	730	15	
11	0	0	0	0	513	504	729	15	
12	0	0	0	0	512	504	729	15	
13	0	0	0	0	511	501	729	15	
14	0	0	0	0	509	497	728	15	
15	0	0	0	0	508	494	728	15	
0	0	0	0	0	507	489	728	15	
1	0	0	0	0	507	484	728	15	
2	0	0	0	0	505	478	727	15	
3	0	0	0	0	504	472	727	15	
4	0	0	0	0	503	466	727	15	
5	0	0	0	0	502	460	726	15	
6	0	0	0	0	501	455	726	15	
7	0	0	0	0	500	452	725	15	
8	0	0	0	0	499	450	725	15	
9	0	0	0	0	499	450	725	15	
10	0	0	0	0	498	455	724	15	
11	0	0	0	0	497	460	723	15	
12	0	0	0	0	497	466	724	15	
13	0	0	0	0	496	474	723	15	
14	0	0	0	0	496	485	722	15	
15	0	0	0	0	494	498	722	15	
0	0	0	0	0	494	514	722	16	
1	0	0	0	0	494	532	721	15	
2	0	0	0	0	493	553	721	15	
3	0	0	0	0	492	576	720	15	
4	0	0	0	0	492	601	720	15	
5	0	0	0	0	491	627	720	15	
6	0	0	0	0	491	649	720	15	
7	0	0	0	0	490	671	719	15	
8	0	0	0	0	490	693	719	15	
9	0	0	0	0	489	714	719	15	
10	0	0	0	0	489	735	718	15	
11	0	0	0	0	490	756	718	15	
12	0	0	0	0	488	770	718	15	
13	0	0	0	0	488	779	717	15	
14	0	0	0	0	488	780	717	15	
15	0	0	0	0	489	779	717	15	
0	0	0	0	0	488	773	716	15	
1	0	0	0	0	488	761	716	15	
2	0	0	0	0	488	747	716	15	
3	0	0	0	0	487	732	715	15	
4	0	0	0	0	488	714	715	15	
5	0	0	0	0	488	691	714	15	
6	0	0	0	0	488	664	714	15	
7	0	0	0	0	488	635	713	15	
8	0	0	0	0	488	608	713	15	
9	0	0	0	0	488	585	713	15	
10	0	0	0	0	488	562	713	15	
11	0	0	0	0	488	543	712	15	
12	0	0	0	0	488	527	712	15	
13	0	0	0	0	488	517	711	15	
14	0	0	0	0	488	510	711	15	
15	0	0	0	0	489	504	711	15	
0	0	0	0	0	488	498	711	15	
1	0	0	0	0	489	490	710	15	
2	0	0	0	0	489	481	710	15	
3	0	0	0	0	489	472	710	15	
4	0	0	0	0	489	463	709	15	
5	0	0	0	0	490	456	710	15	
6	0	0	0	0	491	449	709	15	
7	0	0	0	0	490	442	709	15	
8	0	0	0	0	491	438	709	15	
9	0	0	0	0	492	436	708	15	
10	0	0	0	0	492	436	708	15	
11	0	0	0	0	493	438	707	15	
12	0	0	0	0	492	438	707	15	
13	0	0	0	0	493	439	707	15	
14	0	0	0	0	494	440	707	15	
15	0	0	0	0	494	441	706	15	
0	0	0	0	0	494	442	706	15	
1	0	0	0	0	495	441	706	15	
2	0	0	0	0	496	441	705	15	
3	0	0	0	0	496	440	705	15	
4	0	0	0	0	497	441	704	15	
5	0	0	0	0	497	442	704	15	
6	0	0	0	0	498	444	704	15	
7	0	0	0	0	499	446	703	15	
8	0	0	0	0	499	447	703	15	
9	0	0	0	0	500	448	703	15	
10	0	0	0	0	501	449	702	15	
11	0	0	0	0	502	450	701	15	
12	0	0	0	0	502	451	701	15	
13	0	0	0	0	503	454	700	15	
14	0	0	0	0	503	455	700	15	
15	0	0	0	0	504	458	699	15	
0	0	0	0	0	505	459	699	15	
1	0	0	0	0	505	458	698	15	
2	0	0	0	0	506	457	697	15	
3	0	0	0	0	507	456	697	15	
4	0	0	0	0	507	456	696	15	
5	0	0	0	0	508	456	696	15	
6	0	0	0	0	508	457	696	15	
7	0	0	0	0	509	457	695	15	
8	0	0	0	0	510	459	694	15	
9	0	0	0	0	510	462	694	15	
10	0	0	0	0	511	464	693	15	
11	0	0	0	0	512	467	693	15	
12	0	0	0	0	512	468	692	15	
13	0	0	0	0	513	469	692	15	
14	0	0	0	0	514	471	691	15	
15	0	0	0	0	514	472	690	15	
0	0	0	0	0	515	474	690	15	
1	0	0	0	0	516	475	690	15	
2	0	0	0	0	517	475	689	15	
3	0	0	0	0	519	472	689	15	
4	0	0	0	0	518	470	689	15	
5	0	0	0	0	519	470	688	15	
6	0	0	0	0	519	471	687	15	
7	0	0	0	0	520	474	687	15	
8	0	0	0	0	521	476	686	15	
9	0	0	0	0	522	478	686	15	
10	0	0	0	0	523	479	686	15	
11	0	0	0	0	524	477	686	15	
12	0	0	0	0	525	475	685	15	
13	0	0	0	0	526	473	684	15	
14	0	0	0	0	526	472	684	15	
15	0	0	0	0	527	472	684	15	
0	0	0	0	0	527	471	684	15	
1	0	0	0	0	528	470	684	15	
2	0	0	0	0	529	471	683	15	
3	0	0	0	0	529	472	682	15	
4	0	0	0	0	530	475	682	15	
5	0	0	0	0	531	476	681	15	
6	0	0	0	0	532	477	681	15	
7	0	0	0	0	533	477	681	15	
8	0	0	0	0	533	478	681	15	
9	0	0	0	0	534	479	680	15	
10	0	0	0	0	535	480	680	15	
11	0	0	0	0	536	480	680	15	
12	0	0	0	0	536	480	679	15	
13	0	0	0	0	537	480	679	15	
14	0	0	0	0	538	478	679	15	
15	0	0	0	0	538	477	678	15	
0	0	0	0	0	539	477	678	15	
1	0	0	0	0	540	477	678	15	
2	0	0	0	0	541	476	677	15	
3	0	0	0	0	543	475	677	15	
4	0	0	0	0	543	475	676	15	
5	0	0	0	0	544	476	676	15	
6	0	0	0	0	544	478	676	15	
7	0	0	0	0	545	480	675	15	
8	0	0	0	0	546	481	675	15	
9	0	0	0	0	547	481	675	15	
10	0	0	0	0	547	481	674	15	
11	0	0	0	0	548	482	674	15	
12	0	0	0	0	548	483	673	15	
13	0	0	0	0	550	483	673	15	
14	0	0	0	0	550	483	672	15	
15	0	0	0	0	551	483	672	15	
0	0	0	0	0	551	485	672	15	
1	0	0	0	0	552	486	671	15	
2	0	0	0	0	553	487	671	15	
3	0	0	0	0	554	485	671	15	
4	0	0	0	0	555	486	670	15	
5	0	0	0	0	555	487	670	15	
6	0	0	0	0	556	488	670	15	
7	0	0	0	0	557	488	670	15	
8	0	0	0	0	557	487	669	15	
9	0	0	0	0	558	488	668	15	
10	0	0	0	0	559	488	668	15	
11	0	0	0	0	560	488	668	15	
12	0	0	0	0	560	490	668	15	
13	0	0	0	0	561	492	667	15	
14	0	0	0	0	561	494	666	15	
15	0	0	0	0	563	497	666	15	
0	0	0	0	0	562	497	665	15	
1	0	0	0	0	564	499	665	15	
2	0	0	0	0	564	499	665	15	
3	0	0	0	0	565	498	664	15	
4	0	0	0	0	565	495	664	15	
5	0	0	0	0	566	494	663	15	
6	0	0	0	0	568	494	663	15	
7	0	0	0	0	568	495	662	15	
8	0	0	0	0	568	497	662	15	
9	0	0	0	0	568	499	662	15	
10	0	0	0	0	569	498	661	15	
11	0	0	0	0	571	498	661	15	
12	0	0	0	0	570	499	660	15	
13	0	0	0	0	571	500	660	15	
14	0	0	0	0	571	499	659	15	
15	0	0	0	0	571	499	659	15	
0	0	0	0	0	572	498	659	15	
1	0	0	0	0	572	498	659	15	
2	0	0	0	0	572	498	658	15	
3	0	0	0	0	574	499	658	15	
4	0	0	0	0	574	499	657	15	
5	0	0	0	0	574	499	657	15	
6	0	0	0	0	574	499	657	15	
7	0	0	0	0	574	499	656	15	
8	0	0	0	0	574	499	655	15	
9	0	0	0	0	575	500	655	15	
10	0	0	0	0	575	503	655	15	
11	0	0	0	0	576	504	655	15	
12	0	0	0	0	576	507	654	15	
13	0	0	0	0	576	509	654	15	
14	0	0	0	0	576	508	654	15	
15	0	0	0	0	576	509	653	15	
0	0	0	0	0	576	508	653	15	
1	0	0	0	0	577	508	652	15	
2	0	0	0	0	577	507	652	15	
3	0	0	0	0	578	505	652	15	
4	0	0	0	0	578	505	652	15	
5	0	0	0	0	579	506	651	15	
6	0	0	0	0	578	505	651	15	
7	0	0	0	0	578	505	651	15	
8	0	0	0	0	579	508	650	15	
9	0	0	0	0	579	508	650	15	
10	0	0	0	0	579	508	650	15	
11	0	0	0	0	579	509	649	15	
12	0	0	0	0	579	509	649	15	
13	0	0	0	0	579	508	648	15	
14	0	0	0	0	579	508	649	15	
15	0	0	0	0	579	507	648	15	
0	0	0	0	0	579	507	648	15	
1	0	0	0	0	579	508	647	15	
2	0	0	0	0	578	509	647	15	
3	0	0	0	0	579	511	647	15	
4	0	0	0	0	578	513	647	15	
5	0	0	0	0	578	513	647	15	
6	0	0	0	0	577	511	646	15	
7	0	0	0	0	577	508	646	15	
8	0	0	0	0	577	505	646	15	
9	0	0	0	0	577	504	646	15	
10	0	0	0	0	577	503	645	15	
11	0	0	0	0	577	500	645	15	
12	0	0	0	0	576	499	645	15	
13	0	0	0	0	576	497	645	15	
14	0	0	0	0	575	497	644	15	
15	0	0	0	0	575	496	644	15	
0	0	0	0	0	575	496	644	15	
1	0	0	0	0	573	497	644	15	
2	0	0	0	0	573	499	643	15	
3	0	0	0	0	572	499	643	15	
4	0	0	0	0	572	499	643	15	
5	0	0	0	0	572	502	643	15	
6	0	0	0	0	571	504	642	15	
7	0	0	0	0	570	505	643	15	
8	0	0	0	0	570	504	642	15	
9	0	0	0	0	569	502	642	15	
10	0	0	0	0	569	502	642	15	
11	0	0	0	0	568	502	642	15	
12	0	0	0	0	568	502	641	15	
13	0	0	0	0	567	503	641	15	
14	0	0	0	0	567	503	641	15	
15	0	0	0	0	566	500	641	15	
0	0	0	0	0	566	499	641	15	
1	0	0	0	0	566	499	641	15	
2	0	0	0	0	565	499	641	15	
3	0	0	0	0	565	499	641	15	
4	0	0	0	0	566	500	640	15	
5	0	0	0	0	564	499	640	15	
6	0	0	0	0	565	500	641	15	
7	0	0	0	0	564	499	640	15	
8	0	0	0	0	564	499	640	15	
9	0	0	0	0	564	499	640	15	
10	0	0	0	0	565	498	640	15	
11	0	0	0	0	565	497	639	15	
12	0	0	0	0	565	498	639	15	
13	0	0	0	0	566	500	639	15	
14	0	0	0	0	566	504	639	15	
15	0	0	0	0	567	508	639	15	
0	0	0	0	0	567	511	639	15	
1	0	0	0	0	567	511	639	15	
2	0	0	0	0	567	508	639	15	
3	0	0	0	0	568	504	639	15	
4	0	0	0	0	569	500	639	15	
5	0	0	0	0	570	500	639	15	
6	0	0	0	0	570	499	639	15	
7	0	0	0	0	571	499	639	15	
8	0	0	0	0	572	497	638	15	
9	0	0	0	0	573	496	638	15	
10	0	0	0	0	573	495	638	15	
11	0	0	0	0	575	498	638	15	
12	0	0	0	0	575	502	638	15	
13	0	0	0	0	576	505	638	15	
14	0	0	0	0	577	507	638	15	
15	0	0	0	0	578	506	638	15	
0	0	0	0	0	579	505	638	15	
1	0	0	0	0	580	503	638	15	
2	0	0	0	0	582	500	638	15	
3	0	0	0	0	583	497	637	15	
4	0	0	0	0	584	497	637	15	
5	0	0	0	0	585	497	637	15	
6	0	0	0	0	586	497	637	15	
7	0	0	0	0	588	499	637	15	
8	0	0	0	0	589	502	637	15	
9	0	0	0	0	591	504	637	15	
10	0	0	0	0	592	506	637	15	
11	0	0	0	0	593	507	637	15	
12	0	0	0	0	593	508	637	15	
13	0	0	0	0	595	506	637	15	
14	0	0	0	0	596	503	637	15	
15	0	0	0	0	598	502	637	15	
0	0	0	0	0	599	500	637	15	
1	0	0	0	0	600	499	637	15	
2	0	0	0	0	601	499	637	15	
3	0	0	0	0	603	500	637	15	
4	0	0	0	0	604	504	637	15	
5	0	0	0	0	605	507	637	15	
6	0	0	0	0	606	509	637	15	
7	0	0	0	0	606	509	637	15	
8	0	0	0	0	607	507	638	15	
9	0	0	0	0	608	507	638	15	
10	0	0	0	0	609	504	638	15	
11	0	0	0	0	610	502	638	15	
12	0	0	0	0	610	500	638	15	
13	0	0	0	0	612	500	638	15	
14	0	0	0	0	612	499	638	15	
15	0	0	0	0	613	499	638	15	
0	0	0	0	0	614	497	638	15	
1	0	0	0	0	614	494	638	15	
2	0	0	0	0	615	494	639	15	
3	0	0	0	0	616	494	639	15	
4	0	0	0	0	616	495	639	15	
5	0	0	0	0	617	497	639	15	
6	0	0	0	0	617	499	639	15	
7	0	0	0	0	618	503	639	15	
8	0	0	0	0	618	505	639	15	
9	0	0	0	0	618	508	639	15	
10	0	0	0	0	619	507	639	15	
11	0	0	0	0	619	504	639	15	
12	0	0	0	0	619	502	640	15	
13	0	0	0	0	619	501	640	15	
14	0	0	0	0	619	501	640	15	
15	0	0	0	0	619	503	640	15	
0	0	0	0	0	619	503	640	15	
1	0	0	0	0	618	504	640	15	
2	0	0	0	0	617	504	641	15	
3	0	0	0	0	617	502	641	15	
4	0	0	0	0	617	500	641	15	
5	0	0	0	0	616	500	641	15	
6	0	0	0	0	617	500	641	15	
7	0	0	0	0	616	500	641	15	
8	0	0	0	0	616	502	642	15	
9	0	0	0	0	615	503	642	15	
10	0	0	0	0	614	503	642	15	
11	0	0	0	0	614	501	642	15	
12	0	0	0	0	613	501	642	15	
13	0	0	0	0	612	501	642	15	
14	0	0	0	0	611	500	643	15	
15	0	0	0	0	611	500	643	15	
0	0	0	0	0	610	502	643	15	
1	0	0	0	0	609	505	643	15	
2	0	0	0	0	608	507	643	15	
3	0	0	0	0	607	504	644	15	
4	0	0	0	0	605	499	644	15	
5	0	0	0	0	605	497	644	15	
6	0	0	0	0	604	496	644	15	
7	0	0	0	0	602	500	644	15	
8	0	0	0	0	601	504	645	15	
9	0	0	0	0	600	507	645	15	
10	0	0	0	0	599	507	645	15	
11	0	0	0	0	597	505	645	15	
12	0	0	0	0	596	504	646	15	
13	0	0	0	0	595	502	645	15	
14	0	0	0	0	593	500	646	15	
15	0	0	0	0	591	501	646	15	
0	0	0	0	0	590	503	646	15	
1	0	0	0	0	589	505	646	15	
2	0	0	0	0	587	507	647	15	
3	0	0	0	0	586	508	647	15	
4	0	0	0	0	585	508	647	15	
5	0	0	0	0	583	509	647	15	
6	0	0	0	0	581	510	647	15	
7	0	0	0	0	579	510	647	15	
8	0	0	0	0	578	510	647	15	
9	0	0	0	0	577	510	647	15	
10	0	0	0	0	574	510	648	15	
11	0	0	0	0	573	510	647	15	
12	0	0	0	0	572	511	648	15	
13	0	0	0	0	569	511	648	15	
14	0	0	0	0	568	511	648	15	
15	0	0	0	0	566	509	648	15	
0	0	0	0	0	564	508	648	15	
1	0	0	0	0	563	505	649	15	
2	0	0	0	0	561	503	648	15	
3	0	0	0	0	560	503	649	15	
4	0	0	0	0	557	502	649	15	
5	0	0	0	0	556	503	649	15	
6	0	0	0	0	555	504	649	15	
7	0	0	0	0	552	504	649	15	
8	0	0	0	0	551	506	649	15	
9	0	0	0	0	549	505	649	15	
10	0	0	0	0	547	503	650	15	
11	0	0	0	0	545	500	649	15	
12	0	0	0	0	544	497	649	15	
13	0	0	0	0	543	498	650	15	
14	0	0	0	0	541	497	650	15	
15	0	0	0	0	539	497	650	15	
0	0	0	0	0	538	499	650	15	
1	0	0	0	0	536	503	650	15	
2	0	0	0	0	536	508	651	15	
3	0	0	0	0	534	511	651	15	
4	0	0	0	0	532	512	651	15	
5	0	0	0	0	530	510	651	15	
6	0	0	0	0	529	508	651	15	
7	0	0	0	0	527	504	651	15	
8	0	0	0	0	527	500	651	15	
9	0	0	0	0	525	497	651	15	
10	0	0	0	0	524	493	651	15	
11	0	0	0	0	523	492	651	15	
12	0	0	0	0	521	494	651	15	
13	0	0	0	0	520	494	651	15	
14	0	0	0	0	519	493	651	15	
15	0	0	0	0	518	492	651	15	
0	0	0	0	0	516	492	651	15	
1	0	0	0	0	515	494	651	15	
2	0	0	0	0	514	496	651	15	
3	0	0	0	0	513	499	651	15	
4	0	0	0	0	512	501	651	15	
5	0	0	0	0	511	502	651	15	
6	0	0	0	0	510	502	652	15	
7	0	0	0	0	510	502	652	15	
8	0	0	0	0	508	503	652	15	
9	0	0	0	0	508	503	652	15	
10	0	0	0	0	506	501	652	15	
11	0	0	0	0	506	497	652	15	
12	0	0	0	0	505	495	652	15	
13	0	0	0	0	504	496	652	15	
14	0	0	0	0	504	496	652	15	
15	0	0	0	0	503	498	652	15	
0	0	0	0	0	502	499	652	15	
1	0	0	0	0	501	501	652	15	
2	0	0	0	0	501	505	652	15	
3	0	0	0	0	500	510	652	15	
4	0	0	0	0	499	513	653	15	
5	0	0	0	0	499	515	653	15	
6	0	0	0	0	498	510	653	15	
7	0	0	0	0	497	504	653	15	
8	0	0	0	0	496	499	653	15	
9	0	0	0	0	496	498	653	15	
10	0	0	0	0	496	495	653	15	
11	0	0	0	0	495	494	653	15	
12	0	0	0	0	494	494	653	15	
13	0	0	0	0	494	495	653	15	
14	0	0	0	0	493	496	653	15	
15	0	0	0	0	493	496	653	15	
0	0	0	0	0	492	496	654	15	
1	0	0	0	0	492	496	653	15	
2	0	0	0	0	491	495	654	15	
3	0	0	0	0	491	494	654	15	
4	0	0	0	0	491	491	654	15	
5	0	0	0	0	490	488	654	15	
6	0	0	0	0	489	486	654	15	
7	0	0	0	0	489	482	654	15	
8	0	0	0	0	488	477	654	15	
9	0	0	0	0	488	473	654	15	
10	0	0	0	0	487	473	654	15	
11	0	0	0	0	488	472	655	15	
12	0	0	0	0	487	468	654	15	
13	0	0	0	0	487	462	654	15	
14	0	0	0	0	487	454	655	15	
15	0	0	0	0	487	449	655	15	
0	0	0	0	0	486	451	655	15	
1	0	0	0	0	487	457	655	15	
2	0	0	0	0	486	466	655	15	
3	0	0	0	0	486	475	655	15	
4	0	0	0	0	486	481	655	15	
5	0	0	0	0	486	489	655	15	
6	0	0	0	0	485	503	655	15	
7	0	0	0	0	484	519	655	15	
8	0	0	0	0	484	539	655	15	
9	0	0	0	0	484	559	656	15	
10	0	0	0	0	484	583	655	15	
11	0	0	0	0	484	612	655	15	
12	0	0	0	0	484	643	656	15	
13	0	0	0	0	484	669	656	15	
14	0	0	0	0	483	690	656	15	
15	0	0	0	0	483	709	656	15	
0	0	0	0	0	483	726	656	15	
1	0	0	0	0	483	741	656	15	
2	0	0	0	0	482	755	656	15	
3	0	0	0	0	482	766	656	15	
4	0	0	0	0	482	771	656	15	
5	0	0	0	0	482	769	657	15	
6	0	0	0	0	482	764	657	15	
7	0	0	0	0	482	755	657	15	
8	0	0	0	0	481	742	657	15	
9	0	0	0	0	481	727	657	15	
10	0	0	0	0	481	712	657	15	
11	0	0	0	0	481	697	657	15	
12	0	0	0	0	481	676	658	15	
13	0	0	0	0	481	651	657	15	
14	0	0	0	0	481	627	657	15	
15	0	0	0	0	481	606	658	15	
0	0	0	0	0	480	583	658	15	
1	0	0	0	0	481	561	658	15	
2	0	0	0	0	481	540	659	15	
3	0	0	0	0	480	524	659	15	
4	0	0	0	0	481	513	659	15	
5	0	0	0	0	481	507	659	15	
6	0	0	0	0	481	502	659	15	
7	0	0	0	0	481	497	659	15	
8	0	0	0	0	481	492	660	15	
9	0	0	0	0	481	484	660	15	
10	0	0	0	0	481	473	660	15	
11	0	0	0	0	481	463	661	15	
12	0	0	0	0	481	451	661	15	
13	0	0	0	0	481	442	661	15	
14	0	0	0	0	481	439	662	15	
15	0	0	0	0	481	437	661	15	
0	0	0	0	0	481	435	662	15	
1	0	0	0	0	481	432	662	15	
2	0	0	0	0	481	428	662	15	
3	0	0	0	0	482	424	662	15	
4	0	0	0	0	482	425	663	15	
5	0	0	0	0	481	430	663	15	
6	0	0	0	0	480	435	663	15	
7	0	0	0	0	480	437	663	15	
8	0	0	0	0	482	437	663	15	
9	0	0	0	0	481	437	664	15	
10	0	0	0	0	481	439	664	15	
11	0	0	0	0	481	443	664	15	
12	0	0	0	0	481	446	664	15	
13	0	0	0	0	481	449	664	15	
14	0	0	0	0	481	448	664	15	
15	0	0	0	0	481	447	664	15	
0	0	0	0	0	482	448	664	15	
1	0	0	0	0	482	448	664	15	
2	0	0	0	0	482	451	664	15	
3	0	0	0	0	482	454	664	15	
4	0	0	0	0	482	457	665	15	
5	0	0	0	0	483	460	665	15	
6	0	0	0	0	483	462	665	15	
7	0	0	0	0	483	464	665	15	
8	0	0	0	0	483	464	665	15	
9	0	0	0	0	483	462	665	15	
10	0	0	0	0	483	462	665	15	
11	0	0	0	0	483	463	665	15	
12	0	0	0	0	483	464	665	15	
13	0	0	0	0	483	464	666	15	
14	0	0	0	0	483	465	666	15	
15	0	0	0	0	484	465	666	15	
0	0	0	0	0	484	466	667	15	
1	0	0	0	0	484	467	667	15	
2	0	0	0	0	485	466	667	15	
3	0	0	0	0	485	466	668	15	
4	0	0	0	0	485	463	668	15	
5	0	0	0	0	484	462	668	15	
6	0	0	0	0	484	460	668	15	
7	0	0	0	0	485	462	668	15	
8	0	0	0	0	486	463	668	15	
9	0	0	0	0	486	463	668	15	
10	0	0	0	0	486	464	669	15	
11	0	0	0	0	487	464	669	15	
12	0	0	0	0	487	465	670	15	
13	0	0	0	0	487	468	670	15	
14	0	0	0	0	487	472	671	15	
15	0	0	0	0	487	473	671	15	
0	0	0	0	0	487	471	671	15	
1	0	0	0	0	488	469	671	15	
2	0	0	0	0	488	472	672	15	
3	0	0	0	0	488	473	672	15	
4	0	0	0	0	489	473	672	15	
5	0	0	0	0	489	473	673	15	
6	0	0	0	0	489	473	673	15	
7	0	0	0	0	490	473	674	15	
8	0	0	0	0	490	474	674	15	
9	0	0	0	0	491	473	674	15	
10	0	0	0	0	491	471	675	15	
11	0	0	0	0	491	470	675	15	
12	0	0	0	0	491	470	675	15	
13	0	0	0	0	492	470	676	15	
14	0	0	0	0	492	470	676	15	
15	0	0	0	0	492	471	677	15	
0	0	0	0	0	492	473	677	15	
1	0	0	0	0	493	476	678	15	
2	0	0	0	0	493	476	678	15	
3	0	0	0	0	494	476	678	15	
4	0	0	0	0	494	478	679	15	
5	0	0	0	0	495	481	679	15	
6	0	0	0	0	495	483	679	15	
7	0	0	0	0	495	481	680	15	
8	0	0	0	0	495	479	680	15	
9	0	0	0	0	496	478	681	15	
10	0	0	0	0	496	478	681	15	
11	0	0	0	0	497	477	682	15	
12	0	0	0	0	496	476	682	15	
13	0	0	0	0	497	474	683	15	
14	0	0	0	0	497	473	683	15	
15	0	0	0	0	497	476	684	15	
0	0	0	0	0	498	479	684	15	
1	0	0	0	0	499	482	685	15	
2	0	0	0	0	499	484	685	15	
3	0	0	0	0	499	484	686	15	
4	0	0	0	0	500	483	686	15	
5	0	0	0	0	501	484	687	15	
6	0	0	0	0	501	486	687	15	
7	0	0	0	0	501	489	687	15	
8	0	0	0	0	502	492	688	15	
9	0	0	0	0	502	491	688	15	
10	0	0	0	0	503	491	689	15	
11	0	0	0	0	504	490	689	15	
12	0	0	0	0	504	487	690	15	
13	0	0	0	0	504	483	690	15	
14	0	0	0	0	504	482	691	15	
15	0	0	0	0	505	481	691	15	
0	0	0	0	0	506	480	691	15	
1	0	0	0	0	507	481	691	15	
2	0	0	0	0	507	483	692	15	
3	0	0	0	0	508	486	692	15	
4	0	0	0	0	508	489	693	15	
5	0	0	0	0	508	492	693	15	
6	0	0	0	0	509	495	694	15	
7	0	0	0	0	510	498	694	15	
8	0	0	0	0	511	499	694	15	
9	0	0	0	0	511	499	695	15	
10	0	0	0	0	512	500	695	15	
11	0	0	0	0	513	499	696	15	
12	0	0	0	0	513	496	696	15	
13	0	0	0	0	513	494	696	15	
14	0	0	0	0	514	491	696	15	
15	0	0	0	0	514	492	696	15	
0	0	0	0	0	515	494	697	15	
1	0	0	0	0	515	495	697	15	
2	0	0	0	0	516	497	697	15	
3	0	0	0	0	517	500	698	15	
4	0	0	0	0	517	501	698	15	
5	0	0	0	0	518	502	699	15	
6	0	0	0	0	518	503	699	15	
7	0	0	0	0	519	505	699	15	
8	0	0	0	0	519	504	700	15	
9	0	0	0	0	520	503	700	15	
10	0	0	0	0	521	501	700	15	
11	0	0	0	0	521	499	700	15	
12	0	0	0	0	522	499	701	15	
13	0	0	0	0	522	499	701	15	
14	0	0	0	0	522	501	701	15	
15	0	0	0	0	523	504	702	15	
0	0	0	0	0	524	506	702	15	
1	0	0	0	0	524	508	702	15	
2	0	0	0	0	525	511	703	15	
3	0	0	0	0	525	511	703	15	
4	0	0	0	0	526	511	704	15	
5	0	0	0	0	527	511	704	15	
6	0	0	0	0	527	511	704	15	
7	0	0	0	0	528	511	704	15	
8	0	0	0	0	529	511	705	15	
9	0	0	0	0	529	511	705	15	
10	0	0	0	0	529	512	705	15	
11	0	0	0	0	530	513	706	15	
12	0	0	0	0	531	517	707	15	
13	0	0	0	0	531	518	707	15	
14	0	0	0	0	533	515	707	15	
15	0	0	0	0	533	508	708	15	
0	0	0	0	0	534	504	708	15	
1	0	0	0	0	535	505	709	15	
2	0	0	0	0	536	507	708	15	
3	0	0	0	0	536	510	709	15	
4	0	0	0	0	537	511	710	15	
5	0	0	0	0	537	510	711	15	
6	0	0	0	0	539	509	711	15	
7	0	0	0	0	539	508	711	15	
8	0	0	0	0	540	508	712	15	
9	0	0	0	0	540	507	712	15	
10	0	0	0	0	541	506	712	15	
11	0	0	0	0	542	506	713	15	
12	0	0	0	0	543	507	713	15	
13	0	0	0	0	543	509	714	15	
14	0	0	0	0	543	510	714	15	
15	0	0	0	0	544	509	715	15	
0	0	0	0	0	545	507	716	15	
1	0	0	0	0	545	507	716	15	
2	0	0	0	0	546	507	716	15	
3	0	0	0	0	547	507	717	15	
4	0	0	0	0	547	507	717	15	
5	0	0	0	0	548	507	718	15	
6	0	0	0	0	548	506	719	15	
7	0	0	0	0	550	506	719	15	
8	0	0	0	0	550	505	719	15	
9	0	0	0	0	550	503	720	15	
10	0	0	0	0	552	502	720	15	
11	0	0	0	0	552	504	721	15	
12	0	0	0	0	553	505	722	15	
13	0	0	0	0	553	507	723	15	
14	0	0	0	0	554	506	723	15	
15	0	0	0	0	554	506	724	15	
0	0	0	0	0	556	505	724	15	
1	0	0	0	0	556	505	724	15	
2	0	0	0	0	557	504	726	15	
3	0	0	0	0	557	502	726	15	
4	0	0	0	0	558	502	727	15	
5	0	0	0	0	559	502	728	15	
6	0	0	0	0	560	502	728	15	
7	0	0	0	0	561	502	729	15	
8	0	0	0	0	562	501	729	15	
9	0	0	0	0	563	502	730	15	
10	0	0	0	0	564	503	730	15	
11	0	0	0	0	566	504	731	15	
12	0	0	0	0	567	502	732	15	
13	0	0	0	0	568	502	732	15	
14	0	0	0	0	569	503	733	15	
15	0	0	0	0	571	503	734	15	
0	0	0	0	0	572	504	734	15	
1	0	0	0	0	573	503	735	15	
2	0	0	0	0	575	502	735	15	
3	0	0	0	0	576	502	736	15	
4	0	0	0	0	578	502	736	15	
5	0	0	0	0	579	502	737	15	
6	0	0	0	0	581	500	738	15	
7	0	0	0	0	583	499	738	15	
8	0	0	0	0	585	500	739	15	
9	0	0	0	0	586	502	739	15	
10	0	0	0	0	589	506	741	15	
11	0	0	0	0	590	510	740	15	
12	0	0	0	0	592	513	741	15	
13	0	0	0	0	594	513	742	15	
14	0	0	0	0	596	510	743	15	
15	0	0	0	0	598	506	743	15	
0	0	0	0	0	600	503	743	15	
1	0	0	0	0	603	499	744	15	
2	0	0	0	0	604	494	745	15	
3	0	0	0	0	606	492	746	15	
4	0	0	0	0	609	492	746	15	
5	0	0	0	0	611	496	747	15	
6	0	0	0	0	613	498	747	15	
7	0	0	0	0	615	500	748	15	
8	0	0	0	0	618	502	749	15	
9	0	0	0	0	620	504	750	15	
10	0	0	0	0	622	507	750	15	
11	0	0	0	0	625	508	751	15	
12	0	0	0	0	627	510	752	15	
13	0	0	0	0	629	510	752	15	
14	0	0	0	0	632	508	753	15	
15	0	0	0	0	633	505	753	15	
0	0	0	0	0	636	503	754	16	
1	0	0	0	0	638	499	755	15	
2	0	0	0	0	640	499	756	15	
3	0	0	0	0	642	498	756	15	
4	0	0	0	0	643	499	756	15	
5	0	0	0	0	646	499	757	15	
6	0	0	0	0	648	497	758	15	
7	0	0	0	0	650	499	759	15	
8	0	0	0	0	652	502	760	16	
9	0	0	0	0	654	506	760	15	
10	0	0	0	0	656	510	760	15	
11	0	0	0	0	658	509	761	15	
12	0	0	0	0	659	507	762	15	
13	0	0	0	0	660	505	763	15	
14	0	0	0	0	662	504	764	15	
15	0	0	0	0	664	504	764	15	
0	0	0	0	0	665	504	765	16	
1	0	0	0	0	667	504	765	15	
2	0	0	0	0	669	503	766	15	
3	0	0	0	0	670	502	767	15	
4	0	0	0	0	671	503	768	15	
5	0	0	0	0	672	504	768	15	
6	0	0	0	0	673	504	769	15	
7	0	0	0	0	674	503	769	15	
8	0	0	0	0	675	503	770	16	
9	0	0	0	0	675	503	771	15	
10	0	0	0	0	677	507	772	15	
11	0	0	0	0	678	509	772	15	
12	0	0	0	0	678	510	773	15	
13	0	0	0	0	679	508	774	15	
14	0	0	0	0	679	505	775	15	
15	0	0	0	0	679	501	775	15	
0	0	0	0	0	680	499	776	16	
1	0	0	0	0	680	499	777	15	
2	0	0	0	0	680	501	777	15	
3	0	0	0	0	680	503	777	15	
4	0	0	0	0	680	505	779	15	
5	0	0	0	0	680	507	779	15	
6	0	0	0	0	680	507	780	15	
7	0	0	0	0	680	508	781	15	
8	0	0	0	0	679	507	781	16	
9	0	0	0	0	680	507	782	15	
10	0	0	0	0	679	508	783	15	
11	0	0	0	0	679	509	784	15	
12	0	0	0	0	678	511	784	15	
13	0	0	0	0	678	512	785	15	
14	0	0	0	0	677	512	785	15	
15	0	0	0	0	676	509	786	15	
0	0	0	0	0	675	507	787	16	
1	0	0	0	0	675	506	787	15	
2	0	0	0	0	674	505	788	15	
3	0	0	0	0	673	504	789	15	
4	0	0	0	0	671	503	790	15	
5	0	0	0	0	671	503	791	15	
6	0	0	0	0	669	502	791	15	
7	0	0	0	0	668	500	792	15	
8	0	0	0	0	666	501	792	16	
9	0	0	0	0	664	503	793	15	
10	0	0	0	0	664	504	794	15	
11	0	0	0	0	662	505	794	15	
12	0	0	0	0	660	505	795	15	
13	0	0	0	0	659	505	796	15	
14	0	0	0	0	657	506	796	15	
15	0	0	0	0	655	508	796	15	
0	0	0	0	0	654	507	798	16	
1	0	0	0	0	652	505	798	15	
2	0	0	0	0	651	504	799	15	
3	0	0	0	0	649	503	800	15	
4	0	0	0	0	647	502	800	15	
5	0	0	0	0	645	501	800	15	
6	0	0	0	0	643	501	801	15	
7	0	0	0	0	641	503	802	15	
8	0	0	0	0	639	504	803	16	
9	0	0	0	0	638	505	804	15	
10	0	0	0	0	635	506	804	15	
11	0	0	0	0	633	507	805	15	
12	0	0	0	0	631	509	806	15	
13	0	0	0	0	629	511	806	15	
14	0	0	0	0	627	513	807	15	
15	0	0	0	0	624	515	807	16	
0	0	0	0	0	622	516	808	16	
1	0	0	0	0	620	516	809	15	
2	0	0	0	0	618	515	809	15	
3	0	0	0	0	616	516	810	16	
4	0	0	0	0	614	517	811	15	
5	0	0	0	0	611	515	812	15	
6	0	0	0	0	609	511	812	16	
7	0	0	0	0	607	507	812	15	
8	0	0	0	0	605	505	813	16	
9	0	0	0	0	603	506	814	15	
10	0	0	0	0	601	505	815	15	
11	0	0	0	0	599	506	816	15	
12	0	0	0	0	596	506	816	15	
13	0	0	0	0	594	506	816	15	
14	0	0	0	0	592	508	817	16	
15	0	0	0	0	589	510	817	15	
0	0	0	0	0	587	512	819	16	
1	0	0	0	0	585	513	819	15	
2	0	0	0	0	583	514	820	15	
3	0	0	0	0	581	513	820	16	
4	0	0	0	0	578	511	821	15	
5	0	0	0	0	576	511	822	15	
6	0	0	0	0	574	510	822	16	
7	0	0	0	0	572	509	823	16	
8	0	0	0	0	570	509	823	16	
9	0	0	0	0	568	509	824	16	
10	0	0	0	0	566	510	824	16	
11	0	0	0	0	564	511	825	15	
12	0	0	0	0	562	510	826	15	
13	0	0	0	0	559	510	825	16	
14	0	0	0	0	557	509	826	16	
15	0	0	0	0	556	508	827	15	
0	0	0	0	0	554	506	828	16	
1	0	0	0	0	551	504	828	16	
2	0	0	0	0	550	505	828	16	
3	0	0	0	0	547	505	829	15	
4	0	0	0	0	546	506	830	15	
5	0	0	0	0	544	508	830	15	
6	0	0	0	0	543	510	830	16	
7	0	0	0	0	541	511	831	16	
8	0	0	0	0	538	510	831	16	
9	0	0	0	0	537	509	832	16	
10	0	0	0	0	536	507	832	15	
11	0	0	0	0	533	504	832	15	
12	0	0	0	0	532	501	833	15	
13	0	0	0	0	530	499	833	15	
14	0	0	0	0	529	497	833	16	
15	0	0	0	0	527	496	834	15	
0	0	0	0	0	526	497	834	16	
1	0	0	0	0	524	499	835	15	
2	0	0	0	0	523	501	835	15	
3	0	0	0	0	521	503	835	16	
4	0	0	0	0	519	504	835	15	
5	0	0	0	0	518	506	836	15	
6	0	0	0	0	516	506	836	15	
7	0	0	0	0	515	505	836	16	
8	0	0	0	0	513	504	837	16	
9	0	0	0	0	512	501	837	15	
10	0	0	0	0	511	499	837	16	
11	0	0	0	0	509	500	838	16	
12	0	0	0	0	507	500	838	15	
13	0	0	0	0	506	499	838	16	
14	0	0	0	0	505	500	839	15	
15	0	0	0	0	503	502	839	16	
0	0	0	0	0	503	504	839	16	
1	0	0	0	0	501	506	839	16	
2	0	0	0	0	500	507	839	16	
3	0	0	0	0	499	506	839	15	
4	0	0	0	0	497	507	840	15	
5	0	0	0	0	496	507	840	16	
6	0	0	0	0	495	507	840	16	
7	0	0	0	0	494	508	841	15	
8	0	0	0	0	493	507	841	16	
9	0	0	0	0	492	506	842	15	
10	0	0	0	0	491	506	842	15	
11	0	0	0	0	489	505	841	16	
12	0	0	0	0	488	505	842	15	
13	0	0	0	0	487	507	842	16	
14	0	0	0	0	487	508	843	15	
15	0	0	0	0	486	509	843	16	
0	0	0	0	0	485	508	843	16	
1	0	0	0	0	484	508	843	16	
2	0	0	0	0	483	507	844	15	
3	0	0	0	0	483	506	844	16	
4	0	0	0	0	481	505	844	15	
5	0	0	0	0	481	503	843	16	
6	0	0	0	0	480	501	844	16	
7	0	0	0	0	479	498	845	16	
8	0	0	0	0	479	494	845	16	
9	0	0	0	0	478	490	844	16	
10	0	0	0	0	478	487	845	16	
11	0	0	0	0	477	484	845	15	
12	0	0	0	0	476	481	845	15	
13	0	0	0	0	476	477	846	16	
14	0	0	0	0	475	470	846	15	
15	0	0	0	0	475	465	846	16	
0	0	0	0	0	474	460	846	16	
1	0	0	0	0	474	458	846	16	
2	0	0	0	0	473	460	846	15	
3	0	0	0	0	473	465	846	16	
4	0	0	0	0	473	472	847	15	
5	0	0	0	0	473	479	847	16	
6	0	0	0	0	473	488	847	16	
7	0	0	0	0	472	501	847	16	
8	0	0	0	0	472	516	847	16	
9	0	0	0	0	472	533	847	15	
10	0	0	0	0	472	552	848	16	
11	0	0	0	0	472	572	848	15	
12	0	0	0	0	472	593	848	15	
13	0	0	0	0	472	616	848	16	
14	0	0	0	0	472	640	848	16	
15	0	0	0	0	472	663	849	16	
0	0	0	0	0	472	686	849	16	
1	0	0	0	0	472	710	848	16	
2	0	0	0	0	472	734	848	16	
3	0	0	0	0	472	756	849	16	
4	0	0	0	0	472	775	849	15	
5	0	0	0	0	472	787	849	15	
6	0	0	0	0	473	791	849	16	
7	0	0	0	0	472	790	849	15	
8	0	0	0	0	472	787	849	16	
9	0	0	0	0	473	781	850	16	
10	0	0	0	0	473	771	849	16	
11	0	0	0	0	474	756	850	16	
12	0	0	0	0	475	739	850	15	
13	0	0	0	0	475	718	850	16	
14	0	0	0	0	475	692	850	16	
15	0	0	0	0	475	662	850	16	
0	0	0	0	0	476	634	850	16	
1	0	0	0	0	476	608	851	16	
2	0	0	0	0	476	585	851	16	
3	0	0	0	0	477	562	851	16	
4	0	0	0	0	477	542	851	15	
5	0	0	0	0	478	527	851	16	
6	0	0	0	0	478	516	851	15	
7	0	0	0	0	478	506	851	16	
8	0	0	0	0	479	497	852	16	
9	0	0	0	0	480	487	852	16	
10	0	0	0	0	480	478	852	15	
11	0	0	0	0	481	469	852	16	
12	0	0	0	0	481	463	852	15	
13	0	0	0	0	482	456	852	16	
14	0	0	0	0	482	451	852	16	
15	0	0	0	0	483	446	853	16	
0	0	0	0	0	483	442	853	16	
1	0	0	0	0	484	440	853	16	
2	0	0	0	0	484	439	853	16	
3	0	0	0	0	485	438	853	16	
4	0	0	0	0	486	438	853	15	
5	0	0	0	0	486	439	853	15	
6	0	0	0	0	487	441	854	16	
7	0	0	0	0	487	443	854	16	
8	0	0	0	0	488	442	854	16	
9	0	0	0	0	488	442	853	15	
10	0	0	0	0	489	442	853	16	
11	0	0	0	0	489	443	853	15	
12	0	0	0	0	491	443	853	15	
13	0	0	0	0	490	445	853	16	
14	0	0	0	0	492	447	853	16	
15	0	0	0	0	492	450	853	16	
0	0	0	0	0	492	451	853	16	
1	0	0	0	0	493	452	853	16	
2	0	0	0	0	494	452	852	16	
3	0	0	0	0	495	453	853	16	
4	0	0	0	0	495	454	852	15	
5	0	0	0	0	496	455	852	16	
6	0	0	0	0	496	459	852	16	
7	0	0	0	0	497	463	852	16	
8	0	0	0	0	497	465	852	16	
9	0	0	0	0	498	467	851	15	
10	0	0	0	0	498	468	851	16	
11	0	0	0	0	499	467	851	15	
12	0	0	0	0	500	464	851	15	
13	0	0	0	0	501	461	851	15	
14	0	0	0	0	502	460	850	16	
15	0	0	0	0	502	459	850	16	
0	0	0	0	0	503	459	850	16	
1	0	0	0	0	504	460	851	16	
2	0	0	0	0	504	463	850	16	
3	0	0	0	0	505	465	850	16	
4	0	0	0	0	505	466	849	15	
5	0	0	0	0	507	467	850	16	
6	0	0	0	0	507	468	850	16	
7	0	0	0	0	508	470	849	16	
8	0	0	0	0	509	471	849	16	
9	0	0	0	0	510	470	849	16	
10	0	0	0	0	511	472	848	16	
11	0	0	0	0	512	475	849	16	
12	0	0	0	0	512	475	849	15	
13	0	0	0	0	512	475	848	15	
14	0	0	0	0	513	473	848	16	
15	0	0	0	0	514	470	848	16	
0	0	0	0	0	515	468	848	16	
1	0	0	0	0	515	467	847	15	
2	0	0	0	0	516	468	847	16	
3	0	0	0	0	517	469	847	16	
4	0	0	0	0	518	472	847	15	
5	0	0	0	0	518	475	846	16	
6	0	0	0	0	519	476	846	15	
7	0	0	0	0	519	476	846	16	
8	0	0	0	0	520	476	846	16	
9	0	0	0	0	521	478	846	16	
10	0	0	0	0	521	479	845	16	
11	0	0	0	0	521	479	845	15	
12	0	0	0	0	521	479	845	15	
13	0	0	0	0	522	479	844	16	
14	0	0	0	0	522	479	844	15	
15	0	0	0	0	523	479	844	16	
0	0	0	0	0	523	480	843	16	
1	0	0	0	0	524	481	843	16	
2	0	0	0	0	524	481	843	16	
3	0	0	0	0	525	482	843	15	
4	0	0	0	0	525	481	843	15	
5	0	0	0	0	525	481	843	16	
6	0	0	0	0	525	481	842	16	
7	0	0	0	0	525	482	842	16	
8	0	0	0	0	526	483	841	16	
9	0	0	0	0	526	484	841	15	
10	0	0	0	0	527	484	841	16	
11	0	0	0	0	527	484	841	16	
12	0	0	0	0	527	484	840	15	
13	0	0	0	0	527	483	840	15	
14	0	0	0	0	527	482	840	16	
15	0	0	0	0	526	482	839	15	
0	0	0	0	0	527	482	839	16	
1	0	0	0	0	527	485	839	15	
2	0	0	0	0	527	487	839	16	
3	0	0	0	0	527	487	839	15	
4	0	0	0	0	527	489	839	15	
5	0	0	0	0	527	490	838	15	
6	0	0	0	0	527	491	837	16	
7	0	0	0	0	527	492	838	16	
8	0	0	0	0	527	491	838	16	
9	0	0	0	0	527	492	838	16	
10	0	0	0	0	527	492	838	16	
11	0	0	0	0	526	491	837	16	
12	0	0	0	0	526	491	837	15	
13	0	0	0	0	525	490	836	15	
14	0	0	0	0	525	490	836	15	
15	0	0	0	0	525	489	836	15	
0	0	0	0	0	524	490	836	16	
1	0	0	0	0	524	490	836	16	
2	0	0	0	0	524	491	836	16	
3	0	0	0	0	524	491	835	16	
4	0	0	0	0	524	492	835	15	
5	0	0	0	0	523	494	835	16	
6	0	0	0	0	523	496	835	16	
7	0	0	0	0	523	497	834	15	
8	0	0	0	0	522	498	834	16	
9	0	0	0	0	521	497	834	16	
10	0	0	0	0	522	497	833	16	
11	0	0	0	0	521	498	834	15	
12	0	0	0	0	520	497	833	15	
13	0	0	0	0	519	497	833	15	
14	0	0	0	0	519	498	833	16	
15	0	0	0	0	519	498	833	15	
0	0	0	0	0	518	498	832	16	
1	0	0	0	0	518	498	832	16	
2	0	0	0	0	518	497	832	15	
3	0	0	0	0	518	498	832	15	
4	0	0	0	0	517	499	831	15	
5	0	0	0	0	516	501	831	16	
6	0	0	0	0	516	502	831	15	
7	0	0	0	0	516	503	831	15	
8	0	0	0	0	515	505	831	16	
9	0	0	0	0	515	506	830	16	
10	0	0	0	0	515	507	830	16	
11	0	0	0	0	514	508	830	15	
12	0	0	0	0	514	510	830	15	
13	0	0	0	0	513	510	829	15	
14	0	0	0	0	513	509	829	15	
15	0	0	0	0	513	508	829	16	
0	0	0	0	0	512	508	829	16	
1	0	0	0	0	512	507	828	15	
2	0	0	0	0	512	508	828	15	
3	0	0	0	0	511	507	828	15	
4	0	0	0	0	511	508	828	15	
5	0	0	0	0	510	508	828	15	
6	0	0	0	0	510	509	827	15	
7	0	0	0	0	509	511	827	15	
8	0	0	0	0	509	513	826	16	
9	0	0	0	0	508	515	827	15	
10	0	0	0	0	508	516	826	15	
11	0	0	0	0	508	516	825	15	
12	0	0	0	0	507	515	825	15	
13	0	0	0	0	507	515	824	16	
14	0	0	0	0	507	516	825	16	
15	0	0	0	0	506	515	824	16	
0	0	0	0	0	506	514	824	16	
1	0	0	0	0	506	513	823	16	
2	0	0	0	0	505	514	823	15	
3	0	0	0	0	505	514	823	15	
4	0	0	0	0	504	515	822	15	
5	0	0	0	0	504	515	822	15	
6	0	0	0	0	504	512	822	16	
7	0	0	0	0	504	510	821	16	
8	0	0	0	0	503	509	821	16	
9	0	0	0	0	502	508	820	16	
10	0	0	0	0	503	508	820	15	
11	0	0	0	0	502	508	820	15	
12	0	0	0	0	502	508	819	15	
13	0	0	0	0	501	508	819	16	
14	0	0	0	0	501	509	819	15	
15	0	0	0	0	500	510	819	15	
0	0	0	0	0	500	510	818	16	
1	0	0	0	0	499	509	817	16	
2	0	0	0	0	499	508	817	15	
3	0	0	0	0	499	505	817	15	
4	0	0	0	0	498	504	816	15	
5	0	0	0	0	497	503	816	15	
6	0	0	0	0	497	502	816	15	
7	0	0	0	0	497	501	816	16	
8	0	0	0	0	496	501	815	16	
9	0	0	0	0	496	500	815	15	
10	0	0	0	0	496	500	814	15	
11	0	0	0	0	496	499	814	15	
12	0	0	0	0	496	500	814	15	
13	0	0	0	0	496	500	813	16	
14	0	0	0	0	496	500	813	15	
15	0	0	0	0	495	500	812	15	
0	0	0	0	0	495	499	812	16	
1	0	0	0	0	495	499	812	15	
2	0	0	0	0	495	499	811	15	
3	0	0	0	0	495	498	811	15	
4	0	0	0	0	495	497	811	15	
5	0	0	0	0	494	497	810	16	
6	0	0	0	0	495	497	810	15	
7	0	0	0	0	496	496	809	15	
8	0	0	0	0	496	495	808	16	
9	0	0	0	0	496	496	808	15	
10	0	0	0	0	496	498	808	15	
11	0	0	0	0	496	500	807	15	
12	0	0	0	0	497	501	807	15	
13	0	0	0	0	497	501	807	15	
14	0	0	0	0	498	501	807	15	
15	0	0	0	0	499	502	806	16	
0	0	0	0	0	499	502	806	16	
1	0	0	0	0	500	501	805	15	
2	0	0	0	0	501	501	805	15	
3	0	0	0	0	502	501	805	15	
4	0	0	0	0	503	500	804	15	
5	0	0	0	0	505	500	803	16	
6	0	0	0	0	505	500	803	15	
7	0	0	0	0	507	503	803	15	
8	0	0	0	0	508	504	802	16	
9	0	0	0	0	510	505	802	15	
10	0	0	0	0	511	507	801	15	
11	0	0	0	0	512	504	801	15	
12	0	0	0	0	514	502	800	15	
13	0	0	0	0	515	501	800	16	
14	0	0	0	0	517	502	799	16	
15	0	0	0	0	519	503	799	16	
0	0	0	0	0	520	504	799	16	
1	0	0	0	0	522	504	798	15	
2	0	0	0	0	524	504	798	15	
3	0	0	0	0	525	503	797	15	
4	0	0	0	0	527	503	797	15	
5	0	0	0	0	529	501	796	15	
6	0	0	0	0	530	499	796	15	
7	0	0	0	0	532	497	796	15	
8	0	0	0	0	534	497	795	16	
9	0	0	0	0	536	497	795	15	
10	0	0	0	0	538	498	794	15	
11	0	0	0	0	540	499	794	15	
12	0	0	0	0	542	501	793	15	
13	0	0	0	0	544	502	792	15	
14	0	0	0	0	546	503	792	15	
15	0	0	0	0	548	503	791	15	
0	0	0	0	0	551	503	791	16	
1	0	0	0	0	553	503	790	15	
2	0	0	0	0	555	502	790	15	
3	0	0	0	0	557	502	790	15	
4	0	0	0	0	559	501	789	15	
5	0	0	0	0	560	501	788	15	
6	0	0	0	0	562	500	788	15	
7	0	0	0	0	564	499	787	15	
8	0	0	0	0	566	499	786	16	
9	0	0	0	0	568	499	786	15	
10	0	0	0	0	570	499	786	15	
11	0	0	0	0	572	499	785	15	
12	0	0	0	0	574	499	785	15	
13	0	0	0	0	575	499	785	15	
14	0	0	0	0	577	499	784	15	
15	0	0	0	0	578	499	783	15	
0	0	0	0	0	579	500	783	16	
1	0	0	0	0	581	502	783	15	
2	0	0	0	0	583	503	782	15	
3	0	0	0	0	584	503	781	15	
4	0	0	0	0	585	504	781	15	
5	0	0	0	0	587	504	781	15	
6	0	0	0	0	588	504	780	15	
7	0	0	0	0	590	507	780	15	
8	0	0	0	0	591	509	779	16	
9	0	0	0	0	592	510	779	15	
10	0	0	0	0	593	511	778	15	
11	0	0	0	0	594	510	777	15	
12	0	0	0	0	595	508	777	15	
13	0	0	0	0	595	508	777	15	
14	0	0	0	0	596	506	775	15	
15	0	0	0	0	597	505	775	15	
0	0	0	0	0	598	505	775	16	
1	0	0	0	0	598	505	775	15	
2	0	0	0	0	599	505	774	15	
3	0	0	0	0	600	505	774	15	
4	0	0	0	0	599	507	773	15	
5	0	0	0	0	600	508	772	15	
6	0	0	0	0	600	509	772	15	
7	0	0	0	0	600	510	771	15	
8	0	0	0	0	600	511	771	16	
9	0	0	0	0	600	512	770	15	
10	0	0	0	0	600	514	770	15	
11	0	0	0	0	600	513	769	15	
12	0	0	0	0	599	512	769	15	
13	0	0	0	0	599	510	768	15	
14	0	0	0	0	598	508	768	15	
15	0	0	0	0	598	508	767	15	
0	0	0	0	0	597	508	767	16	
1	0	0	0	0	596	508	766	15	
2	0	0	0	0	596	507	766	15	
3	0	0	0	0	596	507	765	15	
4	0	0	0	0	595	508	765	15	
5	0	0	0	0	594	508	764	15	
6	0	0	0	0	592	508	763	15	
7	0	0	0	0	591	508	763	15	
8	0	0	0	0	591	508	763	15	
9	0	0	0	0	590	507	762	15	
10	0	0	0	0	589	507	762	15	
11	0	0	0	0	588	508	761	15	
12	0	0	0	0	586	507	760	15	
13	0	0	0	0	585	506	760	15	
14	0	0	0	0	584	505	759	15	
15	0	0	0	0	583	504	760	15	
0	0	0	0	0	582	504	758	16	
1	0	0	0	0	580	504	758	15	
2	0	0	0	0	579	504	758	15	
3	0	0	0	0	577	504	757	15	
4	0	0	0	0	575	505	756	15	
5	0	0	0	0	573	505	755	15	
6	0	0	0	0	572	506	755	15	
7	0	0	0	0	570	508	755	15	
8	0	0	0	0	568	507	753	16	
9	0	0	0	0	566	506	753	15	
10	0	0	0	0	564	505	753	15	
11	0	0	0	0	562	505	752	15	
12	0	0	0	0	560	504	752	15	
13	0	0	0	0	558	502	751	15	
14	0	0	0	0	557	500	750	15	
15	0	0	0	0	554	499	749	15	
0	0	0	0	0	552	498	749	15	
1	0	0	0	0	550	498	748	15	
2	0	0	0	0	548	498	748	15	
3	0	0	0	0	546	499	748	15	
4	0	0	0	0	543	500	747	15	
5	0	0	0	0	542	500	746	15	
6	0	0	0	0	539	500	745	15	
7	0	0	0	0	537	500	745	15	
8	0	0	0	0	535	500	744	16	
9	0	0	0	0	533	501	743	15	
10	0	0	0	0	531	500	743	15	
11	0	0	0	0	529	499	743	15	
12	0	0	0	0	527	499	742	15	
13	0	0	0	0	525	499	741	15	
14	0	0	0	0	523	499	741	15	
15	0	0	0	0	520	499	740	15	
0	0	0	0	0	519	500	739	16	
1	0	0	0	0	516	501	739	15	
2	0	0	0	0	515	502	738	15	
3	0	0	0	0	513	502	737	15	
4	0	0	0	0	510	503	737	15	
5	0	0	0	0	508	503	736	15	
6	0	0	0	0	506	503	735	15	
7	0	0	0	0	504	504	735	15	
8	0	0	0	0	501	506	734	15	
9	0	0	0	0	499	506	734	15	
10	0	0	0	0	498	507	733	15	
11	0	0	0	0	496	506	732	15	
12	0	0	0	0	494	507	732	15	
13	0	0	0	0	492	507	730	15	
14	0	0	0	0	490	507	730	15	
15	0	0	0	0	488	507	729	15	
0	0	0	0	0	486	506	728	15	
1	0	0	0	0	484	506	728	15	
2	0	0	0	0	482	507	728	15	
3	0	0	0	0	481	507	727	15	
4	0	0	0	0	479	508	726	15	
5	0	0	0	0	476	509	725	15	
6	0	0	0	0	475	510	724	15	
7	0	0	0	0	473	510	723	15	
8	0	0	0	0	472	510	723	15	
9	0	0	0	0	470	509	722	15	
10	0	0	0	0	468	509	721	15	
11	0	0	0	0	467	510	720	15	
12	0	0	0	0	465	511	720	15	
13	0	0	0	0	463	512	719	15	
14	0	0	0	0	462	512	719	15	
15	0	0	0	0	460	511	718	15	
0	0	0	0	0	459	510	717	15	
1	0	0	0	0	457	509	717	15	
2	0	0	0	0	455	507	716	15	
3	0	0	0	0	454	505	715	15	
4	0	0	0	0	453	504	715	15	
5	0	0	0	0	451	504	714	15	
6	0	0	0	0	450	502	713	15	
7	0	0	0	0	449	500	712	15	
8	0	0	0	0	448	500	711	15	
9	0	0	0	0	446	499	711	15	
10	0	0	0	0	445	499	711	15	
11	0	0	0	0	444	499	710	15	
12	0	0	0	0	443	500	709	15	
13	0	0	0	0	441	500	708	15	
14	0	0	0	0	440	501	707	15	
15	0	0	0	0	440	501	707	15	
0	0	0	0	0	439	501	705	15	
1	0	0	0	0	437	501	705	15	
2	0	0	0	0	437	502	704	15	
3	0	0	0	0	436	503	704	15	
4	0	0	0	0	435	503	703	15	
5	0	0	0	0	435	504	702	15	
6	0	0	0	0	434	504	702	15	
7	0	0	0	0	433	504	701	15	
8	0	0	0	0	432	504	700	15	
9	0	0	0	0	432	504	700	15	
10	0	0	0	0	431	504	699	15	
11	0	0	0	0	431	503	698	15	
12	0	0	0	0	431	503	697	15	
13	0	0	0	0	430	502	696	15	
14	0	0	0	0	430	502	696	15	
15	0	0	0	0	429	502	695	15	
0	0	0	0	0	429	501	694	15	
1	0	0	0	0	429	501	694	15	
2	0	0	0	0	428	502	693	15	
3	0	0	0	0	429	502	692	15	
4	0	0	0	0	428	502	691	15	
5	0	0	0	0	428	502	691	15	
6	0	0	0	0	427	503	690	15	
7	0	0	0	0	427	504	689	15	
8	0	0	0	0	427	504	689	15	
9	0	0	0	0	427	504	688	15	
10	0	0	0	0	427	504	687	15	
11	0	0	0	0	427	504	686	15	
12	0	0	0	0	428	505	686	15	
13	0	0	0	0	428	505	685	15	
14	0	0	0	0	428	505	684	15	
15	0	0	0	0	428	504	684	15	
0	0	0	0	0	428	504	683	15	
1	0	0	0	0	428	504	682	15	
2	0	0	0	0	428	504	681	15	
3	0	0	0	0	430	505	681	15	
4	0	0	0	0	430	505	680	15	
5	0	0	0	0	430	505	679	15	
6	0	0	0	0	431	505	679	15	
7	0	0	0	0	431	504	678	15	
8	0	0	0	0	432	504	678	15	
9	0	0	0	0	433	503	677	15	
10	0	0	0	0	432	501	676	15	
11	0	0	0	0	433	499	675	15	
12	0	0	0	0	434	497	675	15	
13	0	0	0	0	434	496	674	15	
14	0	0	0	0	435	494	673	15	
15	0	0	0	0	436	492	673	15	
0	0	0	0	0	436	488	672	15	
1	0	0	0	0	437	483	671	15	
2	0	0	0	0	438	478	670	15	
3	0	0	0	0	439	473	670	15	
4	0	0	0	0	439	471	669	15	
5	0	0	0	0	439	469	669	15	
6	0	0	0	0	440	468	668	15	
7	0	0	0	0	440	469	667	15	
8	0	0	0	0	441	472	667	15	
9	0	0	0	0	442	478	666	15	
10	0	0	0	0	443	485	665	15	
11	0	0	0	0	444	493	664	15	
12	0	0	0	0	444	504	664	15	
13	0	0	0	0	444	518	664	15	
14	0	0	0	0	445	533	663	15	
15	0	0	0	0	445	549	662	15	
0	0	0	0	0	447	568	661	15	
1	0	0	0	0	448	589	661	15	
2	0	0	0	0	448	612	660	15	
3	0	0	0	0	449	635	659	15	
4	0	0	0	0	450	657	659	15	
5	0	0	0	0	451	678	658	15	
6	0	0	0	0	452	699	657	15	
7	0	0	0	0	452	721	656	15	
8	0	0	0	0	454	743	656	15	
9	0	0	0	0	454	764	655	15	
10	0	0	0	0	455	780	655	15	
11	0	0	0	0	456	786	654	15	
12	0	0	0	0	457	787	653	15	
13	0	0	0	0	458	784	652	15	
14	0	0	0	0	460	778	652	15	
15	0	0	0	0	461	770	652	15	
0	0	0	0	0	462	756	651	15	
1	0	0	0	0	462	739	650	15	
2	0	0	0	0	464	719	649	15	
3	0	0	0	0	465	693	649	15	
4	0	0	0	0	465	665	648	15	
5	0	0	0	0	466	637	647	15	
6	0	0	0	0	467	611	647	15	
7	0	0	0	0	469	588	647	15	
8	0	0	0	0	469	565	646	15	
9	0	0	0	0	471	544	646	15	
10	0	0	0	0	472	528	645	15	
11	0	0	0	0	473	515	644	15	
12	0	0	0	0	474	504	643	15	
13	0	0	0	0	475	495	643	15	
14	0	0	0	0	475	486	643	15	
15	0	0	0	0	476	475	642	15	
0	0	0	0	0	478	466	641	15	
1	0	0	0	0	479	458	641	15	
2	0	0	0	0	479	451	639	15	
3	0	0	0	0	481	444	639	15	
4	0	0	0	0	482	437	639	15	
5	0	0	0	0	483	432	638	15	
6	0	0	0	0	484	431	638	15	
7	0	0	0	0	485	431	637	15	
8	0	0	0	0	486	431	637	15	
9	0	0	0	0	486	432	636	15	
10	0	0	0	0	487	433	636	15	
11	0	0	0	0	489	435	635	15	
12	0	0	0	0	490	436	634	15	
13	0	0	0	0	491	437	633	15	
14	0	0	0	0	492	438	633	15	
15	0	0	0	0	493	440	632	15	
0	0	0	0	0	494	441	632	15	
1	0	0	0	0	496	443	631	15	
2	0	0	0	0	497	445	630	15	
3	0	0	0	0	497	447	629	15	
4	0	0	0	0	498	448	629	15	
5	0	0	0	0	499	449	628	15	
6	0	0	0	0	500	450	627	15	
7	0	0	0	0	501	452	627	15	
8	0	0	0	0	502	453	626	15	
9	0	0	0	0	503	455	625	15	
10	0	0	0	0	504	458	625	15	
11	0	0	0	0	505	460	624	15	
12	0	0	0	0	506	460	624	15	
13	0	0	0	0	507	460	623	15	
14	0	0	0	0	508	460	622	15	
15	0	0	0	0	509	462	622	15	
0	0	0	0	0	510	462	621	15	
1	0	0	0	0	510	462	620	15	
2	0	0	0	0	511	463	619	15	
3	0	0	0	0	512	464	619	15	
4	0	0	0	0	513	464	618	15	
5	0	0	0	0	514	464	617	15	
6	0	0	0	0	515	465	617	15	
7	0	0	0	0	515	466	616	15	
8	0	0	0	0	516	466	615	15	
9	0	0	0	0	517	467	615	15	
10	0	0	0	0	518	467	615	15	
11	0	0	0	0	519	468	614	15	
12	0	0	0	0	519	470	613	15	
13	0	0	0	0	520	471	613	15	
14	0	0	0	0	521	471	612	15	
15	0	0	0	0	522	469	611	15	
0	0	0	0	0	522	469	611	15	
1	0	0	0	0	524	468	610	15	
2	0	0	0	0	525	467	609	15	
3	0	0	0	0	525	467	609	15	
4	0	0	0	0	525	469	608	15	
5	0	0	0	0	527	470	608	15	
6	0	0	0	0	527	470	607	15	
7	0	0	0	0	528	472	607	15	
8	0	0	0	0	528	472	606	15	
9	0	0	0	0	529	473	606	15	
10	0	0	0	0	530	474	605	15	
11	0	0	0	0	530	475	604	15	
12	0	0	0	0	531	476	604	15	
13	0	0	0	0	531	476	603	15	
14	0	0	0	0	532	478	602	15	
15	0	0	0	0	532	478	602	15	
0	0	0	0	0	533	477	601	15	
1	0	0	0	0	534	476	600	15	
2	0	0	0	0	534	476	600	15	
3	0	0	0	0	535	474	599	15	
4	0	0	0	0	536	475	599	15	
5	0	0	0	0	536	475	598	15	
6	0	0	0	0	537	476	597	15	
7	0	0	0	0	537	477	597	15	
8	0	0	0	0	538	476	596	15	
9	0	0	0	0	539	478	595	15	
10	0	0	0	0	539	479	595	15	
11	0	0	0	0	540	479	594	15	
12	0	0	0	0	540	478	593	15	
13	0	0	0	0	540	478	593	15	
14	0	0	0	0	541	479	592	15	
15	0	0	0	0	541	480	592	15	
0	0	0	0	0	542	480	591	15	
1	0	0	0	0	542	480	591	15	
2	0	0	0	0	542	481	590	15	
3	0	0	0	0	543	481	590	15	
4	0	0	0	0	543	481	589	15	
5	0	0	0	0	543	481	588	15	
6	0	0	0	0	543	481	588	15	
7	0	0	0	0	544	482	587	15	
8	0	0	0	0	545	483	587	15	
9	0	0	0	0	545	483	586	15	
10	0	0	0	0	545	483	585	15	
11	0	0	0	0	546	483	585	15	
12	0	0	0	0	546	483	584	15	
13	0	0	0	0	547	483	584	15	
14	0	0	0	0	547	483	583	15	
15	0	0	0	0	547	484	583	15	
0	0	0	0	0	548	483	583	15	
1	0	0	0	0	548	484	582	15	
2	0	0	0	0	549	485	582	15	
3	0	0	0	0	550	487	581	15	
4	0	0	0	0	550	488	580	15	
5	0	0	0	0	550	489	580	15	
6	0	0	0	0	550	490	579	15	
7	0	0	0	0	551	492	579	15	
8	0	0	0	0	551	492	578	15	
9	0	0	0	0	551	492	578	15	
10	0	0	0	0	551	493	577	15	
11	0	0	0	0	551	493	576	15	
12	0	0	0	0	552	494	576	15	
13	0	0	0	0	552	494	576	15	
14	0	0	0	0	553	494	575	15	
15	0	0	0	0	553	494	575	15	
0	0	0	0	0	553	494	574	15	
1	0	0	0	0	554	495	574	15	
2	0	0	0	0	554	496	573	15	
3	0	0	0	0	555	497	573	15	
4	0	0	0	0	555	498	572	15	
5	0	0	0	0	555	498	572	15	
6	0	0	0	0	555	499	572	15	
7	0	0	0	0	555	499	571	15	
8	0	0	0	0	556	499	570	15	
9	0	0	0	0	556	499	570	15	
10	0	0	0	0	556	499	569	15	
11	0	0	0	0	557	498	569	15	
12	0	0	0	0	557	498	568	15	
13	0	0	0	0	556	498	568	15	
14	0	0	0	0	557	499	568	15	
15	0	0	0	0	557	499	567	15	
0	0	0	0	0	557	500	567	15	
1	0	0	0	0	557	501	566	15	
2	0	0	0	0	557	503	565	15	
3	0	0	0	0	558	504	565	15	
4	0	0	0	0	558	504	564	15	
5	0	0	0	0	558	504	564	15	
6	0	0	0	0	558	505	563	15	
7	0	0	0	0	558	506	563	15	
8	0	0	0	0	558	507	562	15	
9	0	0	0	0	559	507	562	15	
10	0	0	0	0	558	508	561	15	
11	0	0	0	0	558	509	561	15	
12	0	0	0	0	558	510	561	15	
13	0	0	0	0	557	511	560	15	
14	0	0	0	0	557	512	560	15	
15	0	0	0	0	557	513	559	15	
0	0	0	0	0	557	514	559	15	
1	0	0	0	0	557	515	558	15	
2	0	0	0	0	557	515	558	15	
3	0	0	0	0	557	514	557	15	
4	0	0	0	0	556	513	557	15	
5	0	0	0	0	556	513	556	15	
6	0	0	0	0	556	512	556	15	
7	0	0	0	0	556	512	555	15	
8	0	0	0	0	555	512	555	15	
9	0	0	0	0	555	512	555	15	
10	0	0	0	0	555	512	554	15	
11	0	0	0	0	554	512	553	15	
12	0	0	0	0	555	511	553	15	
13	0	0	0	0	554	511	553	15	
14	0	0	0	0	554	510	552	15	
15	0	0	0	0	553	510	552	15	
0	0	0	0	0	553	509	551	15	
1	0	0	0	0	553	507	551	15	
2	0	0	0	0	552	506	551	15	
3	0	0	0	0	552	506	551	15	
4	0	0	0	0	552	505	550	15	
5	0	0	0	0	551	505	550	15	
6	0	0	0	0	552	505	549	15	
7	0	0	0	0	551	505	549	15	
8	0	0	0	0	552	505	548	15	
9	0	0	0	0	551	504	548	15	
10	0	0	0	0	551	504	548	15	
11	0	0	0	0	551	503	547	15	
12	0	0	0	0	551	502	547	15	
13	0	0	0	0	551	502	547	15	
14	0	0	0	0	550	502	546	15	
15	0	0	0	0	550	502	546	15	
0	0	0	0	0	550	502	545	15	
1	0	0	0	0	550	502	545	15	
2	0	0	0	0	550	503	545	15	
3	0	0	0	0	550	503	545	15	
4	0	0	0	0	550	503	544	15	
5	0	0	0	0	550	503	544	15	
6	0	0	0	0	549	502	543	15	
7	0	0	0	0	550	502	543	15	
8	0	0	0	0	550	503	543	15	
9	0	0	0	0	550	503	543	15	
10	0	0	0	0	550	503	542	15	
11	0	0	0	0	550	502	542	15	
12	0	0	0	0	551	502	542	15	
13	0	0	0	0	550	502	541	15	
14	0	0	0	0	551	501	541	15	
15	0	0	0	0	551	500	541	15	
0	0	0	0	0	551	499	541	15	
1	0	0	0	0	551	497	540	15	
2	0	0	0	0	552	496	540	15	
3	0	0	0	0	553	495	540	15	
4	0	0	0	0	554	495	540	15	
5	0	0	0	0	554	495	539	15	
6	0	0	0	0	555	495	539	15	
7	0	0	0	0	555	496	539	15	
8	0	0	0	0	556	496	539	15	
9	0	0	0	0	557	496	538	15	
10	0	0	0	0	558	496	538	15	
11	0	0	0	0	559	496	538	15	
12	0	0	0	0	560	497	537	15	
13	0	0	0	0	561	497	537	15	
14	0	0	0	0	561	498	537	15	
15	0	0	0	0	563	498	537	15	
0	0	0	0	0	563	498	537	15	
1	0	0	0	0	564	497	536	15	
2	0	0	0	0	566	497	536	15	
3	0	0	0	0	567	497	536	15	
4	0	0	0	0	567	497	535	14	
5	0	0	0	0	568	496	536	15	
6	0	0	0	0	570	496	535	15	
7	0	0	0	0	571	496	535	15	
8	0	0	0	0	573	496	535	15	
9	0	0	0	0	575	496	534	15	
10	0	0	0	0	576	496	534	15	
11	0	0	0	0	577	496	534	15	
12	0	0	0	0	579	496	533	15	
13	0	0	0	0	581	496	533	15	
14	0	0	0	0	583	495	532	15	
15	0	0	0	0	584	494	532	15	
0	0	0	0	0	587	494	532	15	
1	0	0	0	0	588	494	532	15	
2	0	0	0	0	590	494	531	15	
3	0	0	0	0	591	495	531	15	
4	0	0	0	0	593	495	531	14	
5	0	0	0	0	594	496	531	15	
6	0	0	0	0	595	496	531	15	
7	0	0	0	0	597	496	530	15	
8	0	0	0	0	599	497	530	15	
9	0	0	0	0	601	498	530	15	
10	0	0	0	0	602	497	529	15	
11	0	0	0	0	604	496	529	15	
12	0	0	0	0	606	496	529	14	
13	0	0	0	0	607	496	529	15	
14	0	0	0	0	609	495	529	15	
15	0	0	0	0	611	495	528	15	
0	0	0	0	0	611	495	528	15	
1	0	0	0	0	613	496	528	15	
2	0	0	0	0	615	496	528	15	
3	0	0	0	0	616	497	527	15	
4	0	0	0	0	617	497	527	14	
5	0	0	0	0	619	498	527	15	
6	0	0	0	0	620	498	527	15	
7	0	0	0	0	621	498	527	15	
8	0	0	0	0	623	499	527	15	
9	0	0	0	0	624	500	526	15	
10	0	0	0	0	625	502	526	15	
11	0	0	0	0	627	502	526	15	
12	0	0	0	0	628	503	526	14	
13	0	0	0	0	628	502	526	15	
14	0	0	0	0	629	500	526	15	
15	0	0	0	0	629	499	525	15	
0	0	0	0	0	630	499	525	15	
1	0	0	0	0	632	499	524	15	
2	0	0	0	0	632	499	525	15	
3	0	0	0	0	632	498	524	15	
4	0	0	0	0	633	498	524	14	
5	0	0	0	0	634	499	524	15	
6	0	0	0	0	634	499	524	15	
7	0	0	0	0	635	499	524	15	
8	0	0	0	0	635	499	523	15	
9	0	0	0	0	636	499	523	15	
10	0	0	0	0	636	499	522	15	
11	0	0	0	0	636	500	522	15	
12	0	0	0	0	636	499	522	14	
13	0	0	0	0	636	499	522	15	
14	0	0	0	0	636	500	521	15	
15	0	0	0	0	635	500	521	15	
0	0	0	0	0	635	500	521	15	
1	0	0	0	0	635	500	521	15	
2	0	0	0	0	635	501	520	15	
3	0	0	0	0	635	502	520	15	
4	0	0	0	0	634	502	520	14	
5	0	0	0	0	633	503	519	15	
6	0	0	0	0	633	503	519	15	
7	0	0	0	0	632	503	519	15	
8	0	0	0	0	632	502	519	15	
9	0	0	0	0	631	501	519	15	
10	0	0	0	0	630	500	519	15	
11	0	0	0	0	630	499	518	15	
12	0	0	0	0	629	500	518	15	
13	0	0	0	0	628	500	518	15	
14	0	0	0	0	627	501	518	15	
15	0	0	0	0	626	501	517	15	
0	0	0	0	0	625	501	517	15	
1	0	0	0	0	624	501	517	15	
2	0	0	0	0	624	502	517	15	
3	0	0	0	0	623	502	517	14	
4	0	0	0	0	622	502	516	14	
5	0	0	0	0	622	502	516	15	
6	0	0	0	0	620	502	516	15	
7	0	0	0	0	619	503	515	15	
8	0	0	0	0	618	503	515	15	
9	0	0	0	0	617	503	515	15	
10	0	0	0	0	615	503	515	15	
11	0	0	0	0	615	503	515	15	
12	0	0	0	0	613	502	514	15	
13	0	0	0	0	612	501	514	15	
14	0	0	0	0	611	501	514	15	
15	0	0	0	0	609	501	514	15	
0	0	0	0	0	608	501	513	15	
1	0	0	0	0	607	500	513	15	
2	0	0	0	0	605	500	513	15	
3	0	0	0	0	604	499	513	15	
4	0	0	0	0	602	500	513	14	
5	0	0	0	0	601	499	512	15	
6	0	0	0	0	600	499	512	15	
7	0	0	0	0	598	498	511	15	
8	0	0	0	0	597	497	511	15	
9	0	0	0	0	595	496	511	15	
10	0	0	0	0	593	496	511	15	
11	0	0	0	0	592	495	511	15	
12	0	0	0	0	591	494	511	14	
13	0	0	0	0	589	494	510	15	
14	0	0	0	0	588	494	510	15	
15	0	0	0	0	586	494	510	15	
0	0	0	0	0	584	494	509	15	
1	0	0	0	0	583	494	509	15	
2	0	0	0	0	582	494	509	15	
3	0	0	0	0	580	494	508	15	
4	0	0	0	0	578	494	508	14	
5	0	0	0	0	577	493	508	15	
6	0	0	0	0	575	493	508	15	
7	0	0	0	0	575	492	508	15	
8	0	0	0	0	573	492	508	15	
9	0	0	0	0	571	492	507	15	
10	0	0	0	0	569	493	507	15	
11	0	0	0	0	568	492	507	15	
12	0	0	0	0	566	492	507	14	
13	0	0	0	0	565	492	506	15	
14	0	0	0	0	564	492	506	15	
15	0	0	0	0	562	492	506	15	
0	0	0	0	0	560	492	505	15	
1	0	0	0	0	559	492	505	15	
2	0	0	0	0	558	492	505	15	
3	0	0	0	0	557	492	504	15	
4	0	0	0	0	555	493	504	14	
5	0	0	0	0	554	494	504	15	
6	0	0	0	0	553	494	504	15	
7	0	0	0	0	551	495	504	15	
8	0	0	0	0	550	495	503	15	
9	0	0	0	0	549	495	503	15	
10	0	0	0	0	547	496	503	15	
11	0	0	0	0	546	496	502	15	
12	0	0	0	0	545	496	502	14	
13	0	0	0	0	543	496	502	15	
14	0	0	0	0	542	497	502	15	
15	0	0	0	0	540	498	501	15	
0	0	0	0	0	539	498	501	15	
1	0	0	0	0	539	499	501	15	
2	0	0	0	0	537	499	501	15	
3	0	0	0	0	536	499	500	15	
4	0	0	0	0	534	499	500	14	
5	0	0	0	0	533	500	499	15	
6	0	0	0	0	532	500	499	15	
7	0	0	0	0	531	500	499	15	
8	0	0	0	0	530	502	499	15	
9	0	0	0	0	529	502	499	15	
10	0	0	0	0	528	503	498	15	
11	0	0	0	0	527	504	498	15	
12	0	0	0	0	527	503	498	14	
13	0	0	0	0	526	504	498	15	
14	0	0	0	0	524	504	497	15	
15	0	0	0	0	523	504	497	15	
0	0	0	0	0	522	505	497	15	
1	0	0	0	0	521	505	497	15	
2	0	0	0	0	520	505	496	15	
3	0	0	0	0	519	506	496	15	
4	0	0	0	0	519	505	496	15	
5	0	0	0	0	517	505	496	15	
6	0	0	0	0	517	504	495	15	
7	0	0	0	0	515	503	495	15	
8	0	0	0	0	515	501	495	15	
9	0	0	0	0	514	500	495	15	
10	0	0	0	0	513	500	495	15	
11	0	0	0	0	512	500	494	15	
12	0	0	0	0	512	499	494	14	
13	0	0	0	0	511	499	493	15	
14	0	0	0	0	510	499	493	15	
15	0	0	0	0	510	499	493	15	
0	0	0	0	0	509	499	492	15	
1	0	0	0	0	509	499	492	15	
2	0	0	0	0	508	499	492	15	
3	0	0	0	0	507	499	492	15	
4	0	0	0	0	507	498	491	15	
5	0	0	0	0	506	499	491	15	
6	0	0	0	0	505	499	491	15	
7	0	0	0	0	505	499	491	15	
8	0	0	0	0	504	499	490	15	
9	0	0	0	0	504	500	490	15	
10	0	0	0	0	504	500	490	15	
11	0	0	0	0	504	500	489	15	
12	0	0	0	0	503	500	489	14	
13	0	0	0	0	502	500	489	15	
14	0	0	0	0	502	500	489	15	
15	0	0	0	0	502	500	488	15	
0	0	0	0	0	501	500	487	15	
1	0	0	0	0	501	500	487	15	
2	0	0	0	0	500	499	487	15	
3	0	0	0	0	501	499	487	15	
4	0	0	0	0	500	499	487	14	
5	0	0	0	0	500	499	486	15	
6	0	0	0	0	499	500	486	15	
7	0	0	0	0	499	500	486	15	
8	0	0	0	0	499	500	486	15	
9	0	0	0	0	499	500	485	15	
10	0	0	0	0	499	501	484	15	
11	0	0	0	0	499	501	484	15	
12	0	0	0	0	498	501	484	14	
13	0	0	0	0	498	501	484	15	
14	0	0	0	0	498	502	483	15	
15	0	0	0	0	497	502	483	15	
0	0	0	0	0	496	502	483	15	
1	0	0	0	0	496	502	483	15	
2	0	0	0	0	496	502	482	15	
3	0	0	0	0	496	503	482	15	
4	0	0	0	0	496	503	481	14	
5	0	0	0	0	496	503	481	15	
6	0	0	0	0	496	504	481	15	
7	0	0	0	0	495	504	480	15	
8	0	0	0	0	495	504	480	15	
9	0	0	0	0	495	503	480	15	
10	0	0	0	0	495	504	480	15	
11	0	0	0	0	495	503	479	15	
12	0	0	0	0	495	504	479	14	
13	0	0	0	0	495	503	479	15	
14	0	0	0	0	495	502	478	15	
15	0	0	0	0	495	501	478	14	
0	0	0	0	0	495	499	478	15	
1	0	0	0	0	495	498	477	15	
2	0	0	0	0	495	496	477	15	
3	0	0	0	0	495	494	476	15	
4	0	0	0	0	495	491	476	14	
5	0	0	0	0	495	487	476	15	
6	0	0	0	0	495	481	476	15	
7	0	0	0	0	495	477	475	15	
8	0	0	0	0	496	472	475	15	
9	0	0	0	0	495	469	474	15	
10	0	0	0	0	496	465	474	15	
11	0	0	0	0	496	463	474	15	
12	0	0	0	0	496	463	473	14	
13	0	0	0	0	496	464	473	15	
14	0	0	0	0	496	469	472	15	
15	0	0	0	0	496	475	472	15	
0	0	0	0	0	497	484	472	15	
1	0	0	0	0	497	496	472	15	
2	0	0	0	0	497	511	471	15	
3	0	0	0	0	498	528	471	14	
4	0	0	0	0	498	548	471	14	
5	0	0	0	0	499	569	470	15	
6	0	0	0	0	499	591	470	14	
7	0	0	0	0	499	615	470	15	
8	0	0	0	0	499	640	469	15	
9	0	0	0	0	499	664	469	15	
10	0	0	0	0	500	686	468	15	
11	0	0	0	0	500	708	468	15	
12	0	0	0	0	500	730	467	14	
13	0	0	0	0	500	754	467	15	
14	0	0	0	0	501	774	467	15	
15	0	0	0	0	501	786	467	15	
0	0	0	0	0	502	791	465	15	
1	0	0	0	0	502	793	466	15	
2	0	0	0	0	502	791	466	15	
3	0	0	0	0	503	786	465	15	
4	0	0	0	0	503	780	465	14	
5	0	0	0	0	504	768	464	15	
6	0	0	0	0	504	751	464	15	
7	0	0	0	0	504	729	464	15	
8	0	0	0	0	504	703	463	15	
9	0	0	0	0	504	675	463	15	
10	0	0	0	0	504	646	463	15	
11	0	0	0	0	505	620	463	15	
12	0	0	0	0	506	595	462	14	
13	0	0	0	0	506	569	462	15	
14	0	0	0	0	507	547	462	14	
15	0	0	0	0	507	528	461	15	
0	0	0	0	0	508	512	461	15	
1	0	0	0	0	508	497	461	15	
2	0	0	0	0	508	484	460	15	
3	0	0	0	0	508	472	460	15	
4	0	0	0	0	508	462	460	14	
5	0	0	0	0	508	454	460	15	
6	0	0	0	0	509	447	459	15	
7	0	0	0	0	509	441	459	15	
8	0	0	0	0	510	438	459	15	
9	0	0	0	0	509	434	459	15	
10	0	0	0	0	509	433	458	15	
11	0	0	0	0	509	432	458	15	
12	0	0	0	0	509	433	457	14	
13	0	0	0	0	510	433	457	15	
14	0	0	0	0	510	434	457	15	
15	0	0	0	0	510	435	456	15	
0	0	0	0	0	510	436	456	15	
1	0	0	0	0	511	437	455	15	
2	0	0	0	0	511	438	455	15	
3	0	0	0	0	511	439	455	14	
4	0	0	0	0	511	440	455	14	
5	0	0	0	0	511	441	454	15	
6	0	0	0	0	511	443	454	15	
7	0	0	0	0	511	445	454	15	
8	0	0	0	0	511	446	453	15	
9	0	0	0	0	511	447	453	15	
10	0	0	0	0	512	449	452	15	
11	0	0	0	0	512	449	452	15	
12	0	0	0	0	512	449	451	14	
13	0	0	0	0	511	450	451	15	
14	0	0	0	0	511	451	451	15	
15	0	0	0	0	511	451	450	15	
0	0	0	0	0	511	452	449	15	
1	0	0	0	0	511	452	449	15	
2	0	0	0	0	511	453	449	15	
3	0	0	0	0	512	455	448	14	
4	0	0	0	0	511	455	448	14	
5	0	0	0	0	511	456	447	15	
6	0	0	0	0	511	458	447	15	
7	0	0	0	0	511	459	447	15	
8	0	0	0	0	511	460	446	15	
9	0	0	0	0	510	461	446	15	
10	0	0	0	0	510	462	445	15	
11	0	0	0	0	511	463	445	15	
12	0	0	0	0	510	463	444	14	
13	0	0	0	0	510	464	444	15	
14	0	0	0	0	510	465	444	14	
15	0	0	0	0	510	466	443	15	
0	0	0	0	0	509	466	443	15	
1	0	0	0	0	509	466	442	15	
2	0	0	0	0	509	466	441	14	
3	0	0	0	0	509	467	441	15	
4	0	0	0	0	508	467	441	14	
5	0	0	0	0	508	468	440	15	
6	0	0	0	0	508	469	440	14	
7	0	0	0	0	508	470	440	15	
8	0	0	0	0	507	470	439	15	
9	0	0	0	0	506	471	439	15	
10	0	0	0	0	506	471	438	15	
11	0	0	0	0	506	472	438	14	
12	0	0	0	0	506	472	438	14	
13	0	0	0	0	505	472	437	14	
14	0	0	0	0	505	472	436	15	
15	0	0	0	0	504	473	436	14	
0	0	0	0	0	504	473	436	15	
1	0	0	0	0	504	473	435	15	
2	0	0	0	0	504	474	435	15	
3	0	0	0	0	504	474	434	14	
4	0	0	0	0	503	474	434	14	
5	0	0	0	0	503	474	433	15	
6	0	0	0	0	503	474	433	15	
7	0	0	0	0	502	475	432	15	
8	0	0	0	0	502	475	432	15	
9	0	0	0	0	503	475	432	15	
10	0	0	0	0	501	476	431	15	
11	0	0	0	0	501	476	431	15	
12	0	0	0	0	501	477	430	14	
13	0	0	0	0	500	477	430	15	
14	0	0	0	0	501	478	429	14	
15	0	0	0	0	500	478	428	14	
0	0	0	0	0	500	478	428	15	
1	0	0	0	0	499	478	428	14	
2	0	0	0	0	500	479	427	15	
3	0	0	0	0	499	479	427	14	
4	0	0	0	0	499	479	426	14	
5	0	0	0	0	498	480	425	14	
6	0	0	0	0	498	480	425	14	
7	0	0	0	0	498	480	424	14	
8	0	0	0	0	497	480	424	15	
9	0	0	0	0	497	480	423	14	
10	0	0	0	0	497	480	423	15	
11	0	0	0	0	497	480	423	14	
12	0	0	0	0	496	481	422	14	
